#EXPORTTYPE:DATA SINGLE
#FILE:TL2V(20K)Ar.ngb-ds3
#FORMAT:NETZSCH5
#FTYPE:ANSI
#IDENTITY:005
#DECIMAL:POINT
#SEPARATOR:SEMICOLON
#MTYPE:TG
#INSTRUMENT:NETZSCH STA 449F3
#PROJECT:调试
#DATE/TIME:14.09.2018 12:19
#CORR. FILE:Baseline-1200Ar.ngb-bs3
#TEMPCAL:TCALZERO.TCX
#SENSITIVITY:---
#LABORATORY:煤及煤系气重点实验室
#OPERATOR:wangchg
#REMARK:
#SAMPLE:TL2V(20K)Ar
#SAMPLE MASS /mg:132.5973
#MATERIAL:煤样
#REFERENCE:
#REFERENCE MASS /mg:
#TYPE OF CRUCIBLE:Plate
#SAMPLE CRUCIBLE MASS /mg:0.0
#REFERENCE CRUCIBLE MASS /mg:
#TG RANGE /mg:35000
#TAU-R:---
#CORR. CODE:020
#EXO:-1
#RANGE:45°C/20.0(K/min)/1200°C
#SEGMENT:S1/1
#SEG. 1:45°C/20.0(K/min)/1200°C

##Temp./°C;Time/min;Mass/%
  39.62600; 0.00000;100.00000
  40.18470; 1.00147;100.00186
  40.74340; 1.23543;100.00346
  41.30210; 1.40011;100.00379
  41.86080; 1.53659;100.00384
  42.41950; 1.65434;100.00367
  42.97820; 1.76104;100.00364
  43.53690; 1.85668;100.00197
  44.09560; 1.94567;100.00012
  44.65430; 2.02939; 99.99884
  45.21300; 2.10793; 99.99779
  45.77170; 2.18277; 99.99714
  46.33040; 2.25436; 99.99698
  46.88910; 2.32296; 99.99606
  47.44780; 2.38945; 99.99514
  48.00650; 2.45369; 99.99536
  48.56520; 2.51613; 99.99457
  49.12390; 2.57659; 99.99369
  49.68260; 2.63552; 99.99327
  50.24130; 2.69252; 99.99311
  50.80000; 2.74795; 99.99133
  51.35870; 2.80270; 99.99112
  51.91740; 2.85651; 99.99038
  52.47610; 2.90906; 99.98984
  53.03480; 2.96060; 99.98868
  53.59350; 3.01138; 99.98764
  54.15220; 3.06122; 99.98633
  54.71090; 3.11024; 99.98574
  55.26960; 3.15835; 99.98451
  55.82830; 3.20596; 99.98354
  56.38700; 3.25306; 99.98196
  56.94570; 3.29953; 99.98022
  57.50440; 3.34536; 99.98068
  58.06310; 3.39045; 99.97826
  58.62180; 3.43524; 99.97699
  59.18049; 3.47935; 99.97629
  59.73919; 3.52298; 99.97480
  60.29789; 3.56633; 99.97406
  60.85659; 3.60915; 99.97287
  61.41529; 3.65148; 99.97159
  61.97399; 3.69329; 99.96980
  62.53269; 3.73471; 99.96916
  63.09139; 3.77584; 99.96833
  63.65009; 3.81685; 99.96785
  64.20879; 3.85743; 99.96735
  64.76749; 3.89759; 99.96607
  65.32619; 3.93761; 99.96489
  65.88489; 3.97722; 99.96319
  66.44359; 4.01637; 99.96236
  67.00229; 4.05525; 99.96116
  67.56099; 4.09417; 99.95936
  68.11969; 4.13295; 99.95866
  68.67839; 4.17131; 99.95708
  69.23709; 4.20922; 99.95589
  69.79579; 4.24717; 99.95373
  70.35449; 4.28475; 99.95325
  70.91319; 4.32234; 99.95233
  71.47189; 4.35969; 99.95136
  72.03059; 4.39695; 99.95024
  72.58929; 4.43367; 99.94908
  73.14799; 4.47032; 99.94796
  73.70669; 4.50673; 99.94649
  74.26539; 4.54305; 99.94521
  74.82409; 4.57922; 99.94415
  75.38279; 4.61530; 99.94267
  75.94149; 4.65131; 99.94136
  76.50019; 4.68713; 99.94039
  77.05889; 4.72266; 99.93921
  77.61759; 4.75790; 99.93786
  78.17629; 4.79308; 99.93580
  78.73499; 4.82816; 99.93509
  79.29369; 4.86322; 99.93417
  79.85239; 4.89795; 99.93246
  80.41109; 4.93245; 99.93114
  80.96979; 4.96684; 99.92963
  81.52849; 5.00140; 99.92861
  82.08719; 5.03574; 99.92749
  82.64589; 5.06981; 99.92625
  83.20459; 5.10363; 99.92473
  83.76329; 5.13735; 99.92295
  84.32199; 5.17105; 99.92252
  84.88069; 5.20446; 99.92196
  85.43939; 5.23790; 99.92118
  85.99809; 5.27101; 99.92025
  86.55679; 5.30422; 99.91917
  87.11549; 5.33725; 99.91825
  87.67419; 5.37019; 99.91719
  88.23289; 5.40298; 99.91593
  88.79159; 5.43570; 99.91499
  89.35029; 5.46838; 99.91414
  89.90899; 5.50086; 99.91317
  90.46769; 5.53302; 99.91200
  91.02639; 5.56510; 99.91085
  91.58509; 5.59711; 99.90975
  92.14379; 5.62918; 99.90811
  92.70249; 5.66120; 99.90618
  93.26119; 5.69307; 99.90518
  93.81989; 5.72486; 99.90445
  94.37859; 5.75648; 99.90366
  94.93729; 5.78815; 99.90284
  95.49599; 5.81976; 99.90181
  96.05469; 5.85113; 99.90081
  96.61339; 5.88254; 99.89985
  97.17209; 5.91373; 99.89905
  97.73079; 5.94502; 99.89819
  98.28949; 5.97612; 99.89748
  98.84819; 6.00725; 99.89654
  99.40689; 6.03822; 99.89560
  99.96559; 6.06912; 99.89474
 100.52429; 6.10008; 99.89396
 101.08299; 6.13087; 99.89319
 101.64169; 6.16181; 99.89225
 102.20038; 6.19258; 99.89124
 102.75908; 6.22353; 99.89012
 103.31778; 6.25428; 99.88828
 103.87648; 6.28497; 99.88650
 104.43518; 6.31552; 99.88566
 104.99388; 6.34599; 99.88543
 105.55258; 6.37643; 99.88498
 106.11128; 6.40680; 99.88437
 106.66998; 6.43718; 99.88356
 107.22868; 6.46754; 99.88278
 107.78738; 6.49790; 99.88197
 108.34608; 6.52813; 99.88117
 108.90478; 6.55838; 99.88029
 109.46348; 6.58865; 99.87923
 110.02218; 6.61877; 99.87825
 110.58088; 6.64876; 99.87704
 111.13958; 6.67867; 99.87589
 111.69828; 6.70871; 99.87497
 112.25698; 6.73859; 99.87426
 112.81568; 6.76857; 99.87358
 113.37438; 6.79849; 99.87268
 113.93308; 6.82831; 99.87170
 114.49178; 6.85813; 99.87071
 115.05048; 6.88790; 99.86982
 115.60918; 6.91760; 99.86901
 116.16788; 6.94717; 99.86817
 116.72658; 6.97667; 99.86739
 117.28528; 7.00614; 99.86658
 117.84398; 7.03568; 99.86542
 118.40268; 7.06514; 99.86417
 118.96138; 7.09448; 99.86328
 119.52008; 7.12382; 99.86268
 120.07878; 7.15304; 99.86232
 120.63748; 7.18224; 99.86181
 121.19618; 7.21133; 99.86120
 121.75488; 7.24046; 99.86038
 122.31358; 7.26957; 99.85958
 122.87228; 7.29871; 99.85855
 123.43098; 7.32771; 99.85749
 123.98968; 7.35665; 99.85650
 124.54838; 7.38540; 99.85610
 125.10708; 7.41412; 99.85560
 125.66578; 7.44279; 99.85490
 126.22448; 7.47157; 99.85420
 126.78318; 7.50042; 99.85346
 127.34188; 7.52918; 99.85281
 127.90058; 7.55794; 99.85218
 128.45928; 7.58648; 99.85146
 129.01798; 7.61499; 99.85068
 129.57668; 7.64362; 99.84974
 130.13538; 7.67224; 99.84884
 130.69408; 7.70067; 99.84802
 131.25278; 7.72909; 99.84716
 131.81148; 7.75743; 99.84626
 132.37018; 7.78585; 99.84544
 132.92888; 7.81418; 99.84468
 133.48758; 7.84241; 99.84390
 134.04628; 7.87049; 99.84304
 134.60498; 7.89860; 99.84225
 135.16368; 7.92659; 99.84144
 135.72238; 7.95455; 99.84058
 136.28108; 7.98264; 99.83985
 136.83978; 8.01073; 99.83896
 137.39848; 8.03874; 99.83800
 137.95718; 8.06680; 99.83714
 138.51588; 8.09473; 99.83665
 139.07458; 8.12245; 99.83601
 139.63328; 8.15036; 99.83528
 140.19198; 8.17816; 99.83457
 140.75068; 8.20596; 99.83360
 141.30938; 8.23379; 99.83281
 141.86808; 8.26148; 99.83216
 142.42678; 8.28918; 99.83153
 142.98548; 8.31672; 99.83072
 143.54418; 8.34436; 99.82973
 144.10288; 8.37199; 99.82882
 144.66158; 8.39949; 99.82807
 145.22028; 8.42707; 99.82714
 145.77897; 8.45452; 99.82611
 146.33767; 8.48190; 99.82499
 146.89637; 8.50941; 99.82386
 147.45507; 8.53680; 99.82245
 148.01377; 8.56417; 99.82159
 148.57247; 8.59148; 99.82094
 149.13117; 8.61861; 99.81965
 149.68987; 8.64595; 99.81859
 150.24857; 8.67328; 99.81762
 150.80727; 8.70064; 99.81647
 151.36597; 8.72796; 99.81532
 151.92467; 8.75523; 99.81394
 152.48337; 8.78246; 99.81262
 153.04207; 8.80963; 99.81185
 153.60077; 8.83682; 99.81077
 154.15947; 8.86391; 99.80939
 154.71817; 8.89102; 99.80811
 155.27687; 8.91818; 99.80704
 155.83557; 8.94524; 99.80617
 156.39427; 8.97225; 99.80521
 156.95297; 8.99922; 99.80412
 157.51167; 9.02612; 99.80221
 158.07037; 9.05311; 99.80181
 158.62907; 9.08009; 99.80112
 159.18777; 9.10715; 99.80001
 159.74647; 9.13420; 99.79875
 160.30517; 9.16122; 99.79784
 160.86387; 9.18820; 99.79656
 161.42257; 9.21510; 99.79554
 161.98127; 9.24207; 99.79446
 162.53997; 9.26910; 99.79263
 163.09867; 9.29604; 99.79167
 163.65737; 9.32290; 99.79063
 164.21607; 9.34974; 99.78946
 164.77477; 9.37648; 99.78831
 165.33347; 9.40331; 99.78745
 165.89217; 9.43017; 99.78663
 166.45087; 9.45692; 99.78457
 167.00957; 9.48376; 99.78421
 167.56827; 9.51045; 99.78277
 168.12697; 9.53707; 99.78143
 168.68567; 9.56389; 99.78037
 169.24437; 9.59049; 99.77819
 169.80307; 9.61731; 99.77737
 170.36177; 9.64412; 99.77591
 170.92047; 9.67078; 99.77461
 171.47917; 9.69749; 99.77359
 172.03787; 9.72415; 99.77201
 172.59657; 9.75071; 99.77073
 173.15527; 9.77737; 99.76937
 173.71397; 9.80405; 99.76742
 174.27267; 9.83070; 99.76632
 174.83137; 9.85735; 99.76509
 175.39007; 9.88390; 99.76353
 175.94877; 9.91033; 99.76121
 176.50747; 9.93667; 99.76085
 177.06617; 9.96314; 99.75936
 177.62487; 9.98960; 99.75823
 178.18357;10.01610; 99.75719
 178.74227;10.04257; 99.75512
 179.30097;10.06886; 99.75480
 179.85967;10.09511; 99.75353
 180.41837;10.12138; 99.75151
 180.97707;10.14768; 99.75036
 181.53577;10.17392; 99.74863
 182.09447;10.20027; 99.74713
 182.65317;10.22654; 99.74591
 183.21187;10.25275; 99.74437
 183.77057;10.27903; 99.74325
 184.32927;10.30525; 99.74129
 184.88797;10.33145; 99.74018
 185.44667;10.35763; 99.73860
 186.00537;10.38384; 99.73700
 186.56407;10.40998; 99.73582
 187.12277;10.43610; 99.73385
 187.68147;10.46225; 99.73286
 188.24017;10.48837; 99.73163
 188.79886;10.51445; 99.72981
 189.35756;10.54057; 99.72829
 189.91626;10.56659; 99.72664
 190.47496;10.59276; 99.72506
 191.03366;10.61896; 99.72366
 191.59236;10.64525; 99.72145
 192.15106;10.67164; 99.72040
 192.70976;10.69793; 99.71879
 193.26846;10.72419; 99.71752
 193.82716;10.75041; 99.71500
 194.38586;10.77658; 99.71417
 194.94456;10.80274; 99.71233
 195.50326;10.82887; 99.71011
 196.06196;10.85487; 99.70899
 196.62066;10.88082; 99.70721
 197.17936;10.90676; 99.70610
 197.73806;10.93266; 99.70355
 198.29676;10.95865; 99.70267
 198.85546;10.98468; 99.69995
 199.41416;11.01069; 99.69901
 199.97286;11.03677; 99.69625
 200.53156;11.06274; 99.69518
 201.09026;11.08871; 99.69285
 201.64896;11.11474; 99.69028
 202.20766;11.14078; 99.68885
 202.76636;11.16683; 99.68730
 203.32506;11.19284; 99.68494
 203.88376;11.21877; 99.68353
 204.44246;11.24475; 99.68108
 205.00116;11.27073; 99.67866
 205.55986;11.29675; 99.67726
 206.11856;11.32278; 99.67526
 206.67726;11.34872; 99.67279
 207.23596;11.37466; 99.67152
 207.79466;11.40054; 99.66960
 208.35336;11.42646; 99.66777
 208.91206;11.45229; 99.66583
 209.47076;11.47814; 99.66393
 210.02946;11.50409; 99.66240
 210.58816;11.52999; 99.66070
 211.14686;11.55595; 99.65814
 211.70556;11.58196; 99.65735
 212.26426;11.60789; 99.65538
 212.82296;11.63386; 99.65263
 213.38166;11.65976; 99.65166
 213.94036;11.68558; 99.64950
 214.49906;11.71146; 99.64744
 215.05776;11.73732; 99.64468
 215.61646;11.76322; 99.64327
 216.17516;11.78915; 99.64095
 216.73386;11.81510; 99.63906
 217.29256;11.84108; 99.63679
 217.85126;11.86697; 99.63391
 218.40996;11.89286; 99.63212
 218.96866;11.91872; 99.62934
 219.52736;11.94454; 99.62748
 220.08606;11.97045; 99.62480
 220.64476;11.99638; 99.62283
 221.20346;12.02229; 99.62026
 221.76216;12.04817; 99.61729
 222.32086;12.07403; 99.61542
 222.87956;12.09988; 99.61274
 223.43826;12.12569; 99.61005
 223.99696;12.15148; 99.60817
 224.55566;12.17730; 99.60525
 225.11436;12.20320; 99.60313
 225.67306;12.22923; 99.60043
 226.23176;12.25522; 99.59808
 226.79046;12.28129; 99.59543
 227.34916;12.30723; 99.59246
 227.90786;12.33309; 99.58966
 228.46656;12.35905; 99.58782
 229.02526;12.38495; 99.58462
 229.58396;12.41093; 99.58233
 230.14266;12.43691; 99.57886
 230.70136;12.46276; 99.57622
 231.26006;12.48859; 99.57367
 231.81875;12.51432; 99.57150
 232.37745;12.54010; 99.56808
 232.93615;12.56598; 99.56549
 233.49485;12.59183; 99.56250
 234.05355;12.61768; 99.55950
 234.61225;12.64348; 99.55655
 235.17095;12.66925; 99.55324
 235.72965;12.69504; 99.55142
 236.28835;12.72082; 99.54858
 236.84705;12.74663; 99.54561
 237.40575;12.77247; 99.54327
 237.96445;12.79831; 99.54036
 238.52315;12.82411; 99.53719
 239.08185;12.84987; 99.53431
 239.64055;12.87564; 99.53116
 240.19925;12.90141; 99.52808
 240.75795;12.92728; 99.52467
 241.31665;12.95320; 99.52203
 241.87535;12.97926; 99.51854
 242.43405;13.00538; 99.51518
 242.99275;13.03150; 99.51190
 243.55145;13.05755; 99.50896
 244.11015;13.08345; 99.50602
 244.66885;13.10929; 99.50271
 245.22755;13.13515; 99.49938
 245.78625;13.16100; 99.49618
 246.34495;13.18689; 99.49332
 246.90365;13.21283; 99.49036
 247.46235;13.23875; 99.48722
 248.02105;13.26472; 99.48456
 248.57975;13.29067; 99.48107
 249.13845;13.31660; 99.47788
 249.69715;13.34258; 99.47455
 250.25585;13.36857; 99.47092
 250.81455;13.39462; 99.46760
 251.37325;13.42069; 99.46406
 251.93195;13.44670; 99.46059
 252.49065;13.47273; 99.45714
 253.04935;13.49878; 99.45390
 253.60805;13.52489; 99.45061
 254.16675;13.55105; 99.44678
 254.72545;13.57722; 99.44366
 255.28415;13.60333; 99.43981
 255.84285;13.62933; 99.43604
 256.40155;13.65535; 99.43221
 256.96025;13.68128; 99.42855
 257.51895;13.70723; 99.42497
 258.07765;13.73321; 99.42076
 258.63635;13.75914; 99.41747
 259.19505;13.78508; 99.41378
 259.75375;13.81103; 99.41023
 260.31245;13.83693; 99.40665
 260.87115;13.86290; 99.40308
 261.42985;13.88881; 99.39921
 261.98855;13.91469; 99.39557
 262.54725;13.94061; 99.39221
 263.10595;13.96649; 99.38830
 263.66465;13.99243; 99.38461
 264.22335;14.01837; 99.38097
 264.78205;14.04434; 99.37643
 265.34075;14.07034; 99.37287
 265.89945;14.09633; 99.36923
 266.45815;14.12235; 99.36477
 267.01685;14.14835; 99.36118
 267.57555;14.17436; 99.35623
 268.13425;14.20032; 99.35314
 268.69295;14.22632; 99.34838
 269.25165;14.25227; 99.34472
 269.81035;14.27818; 99.34035
 270.36905;14.30417; 99.33600
 270.92775;14.33018; 99.33184
 271.48645;14.35619; 99.32749
 272.04515;14.38231; 99.32309
 272.60385;14.40839; 99.31874
 273.16255;14.43437; 99.31414
 273.72125;14.46041; 99.30926
 274.27995;14.48636; 99.30495
 274.83865;14.51238; 99.30031
 275.39734;14.53850; 99.29551
 275.95604;14.56464; 99.29110
 276.51474;14.59081; 99.28604
 277.07344;14.61705; 99.28102
 277.63214;14.64323; 99.27670
 278.19084;14.66945; 99.27165
 278.74954;14.69567; 99.26776
 279.30824;14.72175; 99.26281
 279.86694;14.74785; 99.25841
 280.42564;14.77387; 99.25327
 280.98434;14.79994; 99.24811
 281.54304;14.82604; 99.24321
 282.10174;14.85222; 99.23856
 282.66044;14.87841; 99.23409
 283.21914;14.90463; 99.22894
 283.77784;14.93074; 99.22382
 284.33654;14.95683; 99.21865
 284.89524;14.98290; 99.21324
 285.45394;15.00897; 99.20809
 286.01264;15.03523; 99.20131
 286.57134;15.06144; 99.19588
 287.13004;15.08772; 99.18993
 287.68874;15.11398; 99.18413
 288.24744;15.14008; 99.17802
 288.80614;15.16619; 99.17224
 289.36484;15.19229; 99.16707
 289.92354;15.21838; 99.16144
 290.48224;15.24462; 99.15612
 291.04094;15.27086; 99.15028
 291.59964;15.29700; 99.14479
 292.15834;15.32315; 99.13914
 292.71704;15.34926; 99.13325
 293.27574;15.37542; 99.12777
 293.83444;15.40171; 99.12249
 294.39314;15.42794; 99.11697
 294.95184;15.45414; 99.11074
 295.51054;15.48034; 99.10481
 296.06924;15.50656; 99.09888
 296.62794;15.53282; 99.09327
 297.18664;15.55911; 99.08745
 297.74534;15.58535; 99.08175
 298.30404;15.61160; 99.07525
 298.86274;15.63783; 99.06903
 299.42144;15.66409; 99.06328
 299.98014;15.69038; 99.05632
 300.53884;15.71659; 99.05075
 301.09754;15.74293; 99.04387
 301.65624;15.76925; 99.03891
 302.21494;15.79556; 99.03221
 302.77364;15.82189; 99.02629
 303.33234;15.84817; 99.02019
 303.89104;15.87443; 99.01342
 304.44974;15.90069; 99.00753
 305.00844;15.92701; 99.00136
 305.56714;15.95324; 98.99462
 306.12584;15.97954; 98.98776
 306.68454;16.00586; 98.97980
 307.24324;16.03212; 98.97222
 307.80194;16.05845; 98.96519
 308.36064;16.08480; 98.95824
 308.91934;16.11111; 98.95134
 309.47804;16.13749; 98.94420
 310.03674;16.16383; 98.93799
 310.59544;16.19013; 98.93057
 311.15414;16.21645; 98.92567
 311.71284;16.24272; 98.91934
 312.27154;16.26904; 98.91277
 312.83024;16.29537; 98.90714
 313.38894;16.32168; 98.89982
 313.94764;16.34806; 98.89319
 314.50634;16.37444; 98.88509
 315.06504;16.40078; 98.87711
 315.62374;16.42720; 98.86991
 316.18244;16.45359; 98.86259
 316.74114;16.47996; 98.85587
 317.29984;16.50634; 98.84852
 317.85854;16.53269; 98.84098
 318.41723;16.55908; 98.83356
 318.97593;16.58547; 98.82589
 319.53463;16.61193; 98.81868
 320.09333;16.63835; 98.81119
 320.65203;16.66476; 98.80449
 321.21073;16.69125; 98.79691
 321.76943;16.71774; 98.78953
 322.32813;16.74417; 98.78116
 322.88683;16.77061; 98.77357
 323.44553;16.79697; 98.76610
 324.00423;16.82333; 98.75827
 324.56293;16.84979; 98.75012
 325.12163;16.87623; 98.74268
 325.68033;16.90268; 98.73433
 326.23903;16.92918; 98.72652
 326.79773;16.95567; 98.71869
 327.35643;16.98217; 98.71108
 327.91513;17.00867; 98.70363
 328.47383;17.03513; 98.69549
 329.03253;17.06168; 98.68766
 329.59123;17.08818; 98.67932
 330.14993;17.11472; 98.67103
 330.70863;17.14130; 98.66263
 331.26733;17.16793; 98.65380
 331.82603;17.19463; 98.64570
 332.38473;17.22127; 98.63746
 332.94343;17.24786; 98.62929
 333.50213;17.27436; 98.62135
 334.06083;17.30084; 98.61265
 334.61953;17.32737; 98.60478
 335.17823;17.35392; 98.59595
 335.73693;17.38047; 98.58705
 336.29563;17.40697; 98.57867
 336.85433;17.43341; 98.57021
 337.41303;17.45974; 98.56176
 337.97173;17.48604; 98.55323
 338.53043;17.51238; 98.54486
 339.08913;17.53884; 98.53586
 339.64783;17.56532; 98.52723
 340.20653;17.59185; 98.51795
 340.76523;17.61842; 98.50903
 341.32393;17.64502; 98.49958
 341.88263;17.67174; 98.49004
 342.44133;17.69847; 98.48074
 343.00003;17.72524; 98.47131
 343.55873;17.75192; 98.46143
 344.11743;17.77855; 98.45220
 344.67613;17.80515; 98.44245
 345.23483;17.83173; 98.43227
 345.79353;17.85835; 98.42266
 346.35223;17.88503; 98.41225
 346.91093;17.91170; 98.40194
 347.46963;17.93839; 98.39147
 348.02833;17.96505; 98.38102
 348.58703;17.99168; 98.37089
 349.14573;18.01837; 98.36033
 349.70443;18.04504; 98.35033
 350.26313;18.07180; 98.33916
 350.82183;18.09853; 98.32917
 351.38053;18.12522; 98.31873
 351.93923;18.15197; 98.30746
 352.49793;18.17863; 98.29690
 353.05663;18.20533; 98.28648
 353.61533;18.23202; 98.27598
 354.17403;18.25874; 98.26519
 354.73273;18.28542; 98.25341
 355.29143;18.31211; 98.24238
 355.85013;18.33880; 98.23117
 356.40883;18.36546; 98.22036
 356.96753;18.39226; 98.20847
 357.52623;18.41906; 98.19689
 358.08493;18.44582; 98.18481
 358.64363;18.47262; 98.17299
 359.20233;18.49937; 98.16149
 359.76103;18.52617; 98.14937
 360.31973;18.55294; 98.13709
 360.87843;18.57968; 98.12529
 361.43712;18.60640; 98.11329
 361.99582;18.63308; 98.10072
 362.55452;18.65988; 98.08841
 363.11322;18.68671; 98.07558
 363.67192;18.71353; 98.06351
 364.23062;18.74032; 98.05065
 364.78932;18.76707; 98.03787
 365.34802;18.79384; 98.02530
 365.90672;18.82063; 98.01235
 366.46542;18.84746; 97.99950
 367.02412;18.87427; 97.98537
 367.58282;18.90102; 97.97253
 368.14152;18.92783; 97.95932
 368.70022;18.95457; 97.94581
 369.25892;18.98137; 97.93322
 369.81762;19.00819; 97.91994
 370.37632;19.03501; 97.90621
 370.93502;19.06187; 97.89211
 371.49372;19.08863; 97.87840
 372.05242;19.11548; 97.86486
 372.61112;19.14227; 97.85043
 373.16982;19.16906; 97.83600
 373.72852;19.19594; 97.82238
 374.28722;19.22277; 97.80783
 374.84592;19.24962; 97.79348
 375.40462;19.27657; 97.77854
 375.96332;19.30343; 97.76368
 376.52202;19.33031; 97.74956
 377.08072;19.35721; 97.73473
 377.63942;19.38407; 97.72032
 378.19812;19.41094; 97.70512
 378.75682;19.43778; 97.69039
 379.31552;19.46459; 97.67581
 379.87422;19.49137; 97.66080
 380.43292;19.51824; 97.64559
 380.99162;19.54512; 97.63073
 381.55032;19.57205; 97.61516
 382.10902;19.59895; 97.59989
 382.66772;19.62580; 97.58472
 383.22642;19.65267; 97.56989
 383.78512;19.67955; 97.55436
 384.34382;19.70646; 97.53922
 384.90252;19.73333; 97.52269
 385.46122;19.76010; 97.50683
 386.01992;19.78696; 97.49143
 386.57862;19.81374; 97.47507
 387.13732;19.84065; 97.45918
 387.69602;19.86759; 97.44349
 388.25472;19.89443; 97.42744
 388.81342;19.92131; 97.41141
 389.37212;19.94815; 97.39565
 389.93082;19.97503; 97.37919
 390.48952;20.00193; 97.36290
 391.04822;20.02883; 97.34625
 391.60692;20.05566; 97.33003
 392.16562;20.08252; 97.31348
 392.72432;20.10938; 97.29707
 393.28302;20.13626; 97.28090
 393.84172;20.16320; 97.26349
 394.40042;20.19017; 97.24743
 394.95912;20.21707; 97.23073
 395.51782;20.24402; 97.21427
 396.07652;20.27091; 97.19754
 396.63522;20.29774; 97.18075
 397.19392;20.32458; 97.16499
 397.75262;20.35134; 97.14852
 398.31132;20.37816; 97.13130
 398.87002;20.40495; 97.11498
 399.42872;20.43184; 97.09814
 399.98742;20.45869; 97.08140
 400.54612;20.48555; 97.06419
 401.10482;20.51247; 97.04709
 401.66352;20.53931; 97.03036
 402.22222;20.56618; 97.01287
 402.78092;20.59301; 96.99549
 403.33962;20.61988; 96.97868
 403.89832;20.64677; 96.96128
 404.45702;20.67362; 96.94446
 405.01571;20.70040; 96.92727
 405.57441;20.72718; 96.91055
 406.13311;20.75397; 96.89313
 406.69181;20.78076; 96.87509
 407.25051;20.80769; 96.85799
 407.80921;20.83455; 96.84028
 408.36791;20.86135; 96.82300
 408.92661;20.88827; 96.80481
 409.48531;20.91509; 96.78683
 410.04401;20.94196; 96.76918
 410.60271;20.96885; 96.75050
 411.16141;20.99565; 96.73121
 411.72011;21.02244; 96.71330
 412.27881;21.04915; 96.69533
 412.83751;21.07586; 96.67664
 413.39621;21.10259; 96.65799
 413.95491;21.12934; 96.63973
 414.51361;21.15618; 96.62085
 415.07231;21.18302; 96.60220
 415.63101;21.20983; 96.58360
 416.18971;21.23660; 96.56410
 416.74841;21.26343; 96.54510
 417.30711;21.29022; 96.52541
 417.86581;21.31715; 96.50558
 418.42451;21.34404; 96.48583
 418.98321;21.37088; 96.46533
 419.54191;21.39771; 96.44533
 420.10061;21.42445; 96.42509
 420.65931;21.45125; 96.40346
 421.21801;21.47806; 96.38303
 421.77671;21.50485; 96.36181
 422.33541;21.53176; 96.34046
 422.89411;21.55857; 96.31927
 423.45281;21.58541; 96.29784
 424.01151;21.61226; 96.27594
 424.57021;21.63901; 96.25402
 425.12891;21.66583; 96.23280
 425.68761;21.69268; 96.20996
 426.24631;21.71948; 96.18771
 426.80501;21.74638; 96.16577
 427.36371;21.77322; 96.14325
 427.92241;21.80012; 96.12048
 428.48111;21.82700; 96.09657
 429.03981;21.85381; 96.07077
 429.59851;21.88061; 96.04714
 430.15721;21.90735; 96.02298
 430.71591;21.93411; 95.99841
 431.27461;21.96095; 95.97383
 431.83331;21.98773; 95.94898
 432.39201;22.01459; 95.92384
 432.95071;22.04143; 95.89816
 433.50941;22.06828; 95.87271
 434.06811;22.09519; 95.84695
 434.62681;22.12195; 95.82118
 435.18551;22.14876; 95.79532
 435.74421;22.17549; 95.76856
 436.30291;22.20216; 95.74152
 436.86161;22.22894; 95.71358
 437.42031;22.25572; 95.68553
 437.97901;22.28248; 95.65553
 438.53771;22.30929; 95.62708
 439.09641;22.33604; 95.59876
 439.65511;22.36270; 95.56997
 440.21381;22.38941; 95.54026
 440.77251;22.41620; 95.51047
 441.33121;22.44294; 95.48024
 441.88991;22.46970; 95.44971
 442.44861;22.49650; 95.41900
 443.00731;22.52316; 95.38811
 443.56601;22.54981; 95.35645
 444.12471;22.57650; 95.32397
 444.68341;22.60321; 95.29159
 445.24211;22.63000; 95.25842
 445.80081;22.65682; 95.22509
 446.35951;22.68351; 95.19129
 446.91821;22.71018; 95.15474
 447.47691;22.73685; 95.12102
 448.03560;22.76352; 95.08568
 448.59430;22.79029; 95.05076
 449.15300;22.81699; 95.01544
 449.71170;22.84365; 94.97941
 450.27040;22.87034; 94.94334
 450.82910;22.89699; 94.90652
 451.38780;22.92367; 94.86918
 451.94650;22.95033; 94.83151
 452.50520;22.97700; 94.79297
 453.06390;23.00366; 94.75442
 453.62260;23.03026; 94.71515
 454.18130;23.05698; 94.67585
 454.74000;23.08371; 94.63585
 455.29870;23.11052; 94.59567
 455.85740;23.13735; 94.55323
 456.41610;23.16424; 94.50975
 456.97480;23.19113; 94.46787
 457.53350;23.21807; 94.42520
 458.09220;23.24508; 94.38181
 458.65090;23.27203; 94.33786
 459.20960;23.29897; 94.29291
 459.76830;23.32594; 94.24839
 460.32700;23.35292; 94.20265
 460.88570;23.37995; 94.15607
 461.44440;23.40702; 94.10831
 462.00310;23.43419; 94.05964
 462.56180;23.46137; 93.97828
 463.12050;23.48857; 93.86370
 463.67920;23.51579; 93.83289
 464.23790;23.54298; 93.79685
 464.79660;23.57020; 93.75915
 465.35530;23.59736; 93.71018
 465.91400;23.62458; 93.62485
 466.47270;23.65172; 93.58135
 467.03140;23.67883; 93.53241
 467.59010;23.70607; 93.44086
 468.14880;23.73332; 93.39602
 468.70750;23.76072; 93.34553
 469.26620;23.78811; 93.23706
 469.82490;23.81545; 93.16866
 470.38360;23.84273; 93.10067
 470.94230;23.86998; 93.02992
 471.50100;23.89722; 92.95931
 472.05970;23.92437; 92.88775
 472.61840;23.95152; 92.81395
 473.17710;23.97866; 92.73735
 473.73580;24.00578; 92.65928
 474.29450;24.03299; 92.58337
 474.85320;24.06013; 92.50475
 475.41190;24.08721; 92.42385
 475.97060;24.11430; 92.34296
 476.52930;24.14133; 92.26123
 477.08800;24.16836; 92.18028
 477.64670;24.19536; 92.09835
 478.20540;24.22233; 92.01311
 478.76410;24.24924; 91.92975
 479.32280;24.27617; 91.84410
 479.88150;24.30301; 91.75755
 480.44020;24.32988; 91.67012
 480.99890;24.35675; 91.58079
 481.55760;24.38356; 91.49354
 482.11630;24.41048; 91.40462
 482.67500;24.43726; 91.31279
 483.23370;24.46396; 91.22662
 483.79240;24.49068; 91.13868
 484.35110;24.51738; 91.05404
 484.90980;24.54413; 90.96819
 485.46850;24.57089; 90.88271
 486.02720;24.59763; 90.79854
 486.58590;24.62432; 90.71413
 487.14460;24.65101; 90.63149
 487.70330;24.67767; 90.54710
 488.26200;24.70431; 90.46391
 488.82070;24.73090; 90.38257
 489.37940;24.75753; 90.29914
 489.93810;24.78420; 90.21768
 490.49680;24.81091; 90.13594
 491.05549;24.83765; 90.05478
 491.61419;24.86429; 89.96959
 492.17289;24.89083; 89.88869
 492.73159;24.91723; 89.81028
 493.29029;24.94360; 89.73200
 493.84899;24.96997; 89.65599
 494.40769;24.99638; 89.57849
 494.96639;25.02286; 89.50225
 495.52509;25.04932; 89.42678
 496.08379;25.07577; 89.34989
 496.64249;25.10225; 89.27631
 497.20119;25.12872; 89.20140
 497.75989;25.15518; 89.12733
 498.31859;25.18171; 89.05460
 498.87729;25.20815; 88.98118
 499.43599;25.23460; 88.91038
 499.99469;25.26101; 88.83808
 500.55339;25.28742; 88.76416
 501.11209;25.31390; 88.69444
 501.67079;25.34038; 88.62349
 502.22949;25.36693; 88.55518
 502.78819;25.39349; 88.48549
 503.34689;25.42001; 88.41807
 503.90559;25.44658; 88.35040
 504.46429;25.47316; 88.28254
 505.02299;25.49977; 88.21744
 505.58169;25.52639; 88.15090
 506.14039;25.55300; 88.08588
 506.69909;25.57960; 88.02202
 507.25779;25.60617; 87.98036
 507.81649;25.63279; 87.89535
 508.37519;25.65937; 87.83074
 508.93389;25.68600; 87.78168
 509.49259;25.71265; 87.73407
 510.05129;25.73924; 87.68274
 510.60999;25.76591; 87.59456
 511.16869;25.79258; 87.55107
 511.72739;25.81929; 87.50401
 512.28609;25.84601; 87.41291
 512.84479;25.87277; 87.37269
 513.40349;25.89953; 87.32726
 513.96219;25.92634; 87.23699
 514.52089;25.95323; 87.19857
 515.07959;25.98006; 87.15455
 515.63829;26.00687; 87.09497
 516.19699;26.03360; 87.02364
 516.75569;26.06034; 86.98400
 517.31439;26.08714; 86.94059
 517.87309;26.11399; 86.85318
 518.43179;26.14090; 86.81594
 518.99049;26.16778; 86.77660
 519.54919;26.19460; 86.73177
 520.10789;26.22142; 86.68417
 520.66659;26.24830; 86.59920
 521.22529;26.27517; 86.56569
 521.78399;26.30212; 86.52788
 522.34269;26.32909; 86.48638
 522.90139;26.35603; 86.44155
 523.46009;26.38300; 86.39563
 524.01879;26.40992; 86.35009
 524.57749;26.43685; 86.30461
 525.13619;26.46376; 86.25892
 525.69489;26.49069; 86.21511
 526.25359;26.51767; 86.17180
 526.81229;26.54470; 86.12794
 527.37099;26.57172; 86.08354
 527.92969;26.59877; 86.04104
 528.48839;26.62581; 86.00066
 529.04709;26.65282; 85.95973
 529.60579;26.67984; 85.91925
 530.16449;26.70687; 85.87991
 530.72319;26.73397; 85.84126
 531.28189;26.76104; 85.80330
 531.84059;26.78818; 85.76591
 532.39929;26.81533; 85.72870
 532.95799;26.84251; 85.69266
 533.51669;26.86970; 85.65619
 534.07539;26.89682; 85.62023
 534.63408;26.92394; 85.58511
 535.19278;26.95099; 85.55020
 535.75148;26.97801; 85.51425
 536.31018;27.00506; 85.48002
 536.86888;27.03213; 85.44724
 537.42758;27.05923; 85.41418
 537.98628;27.08637; 85.38167
 538.54498;27.11354; 85.34952
 539.10368;27.14076; 85.31726
 539.66238;27.16801; 85.28644
 540.22108;27.19524; 85.25576
 540.77978;27.22245; 85.22427
 541.33848;27.24967; 85.19389
 541.89718;27.27689; 85.16372
 542.45588;27.30410; 85.13392
 543.01458;27.33134; 85.10528
 543.57328;27.35853; 85.07617
 544.13198;27.38577; 85.04637
 544.69068;27.41306; 85.01788
 545.24938;27.44039; 84.98944
 545.80808;27.46769; 84.96178
 546.36678;27.49500; 84.93423
 546.92548;27.52234; 84.90711
 547.48418;27.54965; 84.88037
 548.04288;27.57699; 84.85317
 548.60158;27.60433; 84.82649
 549.16028;27.63170; 84.80016
 549.71898;27.65901; 84.77449
 550.27768;27.68627; 84.74918
 550.83638;27.71359; 84.72314
 551.39508;27.74081; 84.69811
 551.95378;27.76812; 84.67330
 552.51248;27.79543; 84.64841
 553.07118;27.82271; 84.62379
 553.62988;27.85011; 84.59839
 554.18858;27.87745; 84.57455
 554.74728;27.90476; 84.55101
 555.30598;27.93215; 84.52735
 555.86468;27.95955; 84.50369
 556.42338;27.98696; 84.48028
 556.98208;28.01430; 84.45718
 557.54078;28.04163; 84.43480
 558.09948;28.06893; 84.41158
 558.65818;28.09622; 84.38980
 559.21688;28.12353; 84.36737
 559.77558;28.15089; 84.34496
 560.33428;28.17812; 84.32313
 560.89298;28.20542; 84.30152
 561.45168;28.23278; 84.28028
 562.01038;28.26013; 84.25733
 562.56908;28.28748; 84.23583
 563.12778;28.31482; 84.21429
 563.68648;28.34215; 84.19277
 564.24518;28.36942; 84.17198
 564.80388;28.39676; 84.15111
 565.36258;28.42407; 84.12948
 565.92128;28.45140; 84.10935
 566.47998;28.47871; 84.08847
 567.03868;28.50600; 84.06830
 567.59738;28.53331; 84.04836
 568.15608;28.56060; 84.02827
 568.71478;28.58787; 84.00796
 569.27348;28.61519; 83.98790
 569.83218;28.64245; 83.96778
 570.39088;28.66976; 83.94774
 570.94958;28.69709; 83.92720
 571.50828;28.72441; 83.90740
 572.06698;28.75168; 83.88830
 572.62568;28.77892; 83.86856
 573.18438;28.80611; 83.84929
 573.74308;28.83327; 83.82976
 574.30178;28.86052; 83.81106
 574.86048;28.88778; 83.79216
 575.41918;28.91504; 83.77378
 575.97788;28.94224; 83.75528
 576.53658;28.96938; 83.73580
 577.09528;28.99652; 83.71667
 577.65397;29.02373; 83.69806
 578.21267;29.05098; 83.67911
 578.77137;29.07824; 83.66131
 579.33007;29.10551; 83.64292
 579.88877;29.13276; 83.62368
 580.44747;29.15999; 83.60563
 581.00617;29.18725; 83.58696
 581.56487;29.21451; 83.56892
 582.12357;29.24171; 83.55134
 582.68227;29.26887; 83.53288
 583.24097;29.29603; 83.51488
 583.79967;29.32314; 83.49708
 584.35837;29.35037; 83.47909
 584.91707;29.37757; 83.46126
 585.47577;29.40484; 83.44335
 586.03447;29.43210; 83.42569
 586.59317;29.45937; 83.40818
 587.15187;29.48663; 83.39090
 587.71057;29.51378; 83.37383
 588.26927;29.54097; 83.35556
 588.82797;29.56807; 83.33870
 589.38667;29.59520; 83.32109
 589.94537;29.62236; 83.30452
 590.50407;29.64959; 83.28848
 591.06277;29.67691; 83.27206
 591.62147;29.70422; 83.25539
 592.18017;29.73146; 83.23876
 592.73887;29.75860; 83.22244
 593.29757;29.78566; 83.20579
 593.85627;29.81275; 83.18927
 594.41497;29.83988; 83.17319
 594.97367;29.86703; 83.15681
 595.53237;29.89415; 83.14067
 596.09107;29.92133; 83.12399
 596.64977;29.94852; 83.10685
 597.20847;29.97572; 83.08995
 597.76717;30.00296; 83.07367
 598.32587;30.03014; 83.05764
 598.88457;30.05732; 83.04184
 599.44327;30.08454; 83.02527
 600.00197;30.11176; 83.00907
 600.56067;30.13898; 82.99346
 601.11937;30.16613; 82.97696
 601.67807;30.19321; 82.96027
 602.23677;30.22023; 82.94431
 602.79547;30.24727; 82.92890
 603.35417;30.27438; 82.91315
 603.91287;30.30154; 82.89722
 604.47157;30.32876; 82.88199
 605.03027;30.35590; 82.86558
 605.58897;30.38300; 82.84855
 606.14767;30.41012; 82.83224
 606.70637;30.43725; 82.81702
 607.26507;30.46436; 82.80168
 607.82377;30.49144; 82.78562
 608.38247;30.51850; 82.77044
 608.94117;30.54559; 82.75511
 609.49987;30.57274; 82.73847
 610.05857;30.59987; 82.72332
 610.61727;30.62701; 82.70807
 611.17597;30.65412; 82.69261
 611.73467;30.68126; 82.67700
 612.29337;30.70839; 82.66176
 612.85207;30.73561; 82.64682
 613.41077;30.76286; 82.63173
 613.96947;30.79007; 82.61657
 614.52817;30.81726; 82.60086
 615.08687;30.84432; 82.58465
 615.64557;30.87134; 82.56937
 616.20427;30.89837; 82.55495
 616.76297;30.92535; 82.53933
 617.32167;30.95245; 82.52468
 617.88037;30.97955; 82.50975
 618.43907;31.00666; 82.49506
 618.99777;31.03380; 82.48014
 619.55647;31.06081; 82.46486
 620.11517;31.08786; 82.45035
 620.67386;31.11491; 82.43499
 621.23256;31.14193; 82.41960
 621.79126;31.16900; 82.40493
 622.34996;31.19608; 82.39024
 622.90866;31.22318; 82.37659
 623.46736;31.25035; 82.36124
 624.02606;31.27757; 82.34749
 624.58476;31.30471; 82.33426
 625.14346;31.33186; 82.31930
 625.70216;31.35890; 82.30560
 626.26086;31.38594; 82.29184
 626.81956;31.41300; 82.27751
 627.37826;31.44003; 82.26350
 627.93696;31.46709; 82.24917
 628.49566;31.49415; 82.23558
 629.05436;31.52119; 82.22157
 629.61306;31.54824; 82.20753
 630.17176;31.57530; 82.19397
 630.73046;31.60239; 82.17954
 631.28916;31.62947; 82.16584
 631.84786;31.65656; 82.15217
 632.40656;31.68370; 82.13692
 632.96526;31.71091; 82.12324
 633.52396;31.73807; 82.10873
 634.08266;31.76530; 82.09497
 634.64136;31.79241; 82.08174
 635.20006;31.81942; 82.06845
 635.75876;31.84650; 82.05553
 636.31746;31.87347; 82.04205
 636.87616;31.90050; 82.02795
 637.43486;31.92753; 82.01413
 637.99356;31.95457; 82.00059
 638.55226;31.98160; 81.98691
 639.11096;32.00866; 81.97393
 639.66966;32.03577; 81.96089
 640.22836;32.06287; 81.94719
 640.78706;32.09002; 81.93364
 641.34576;32.11716; 81.92006
 641.90446;32.14429; 81.90595
 642.46316;32.17143; 81.89273
 643.02186;32.19854; 81.87972
 643.58056;32.22568; 81.86609
 644.13926;32.25279; 81.85399
 644.69796;32.27988; 81.84102
 645.25666;32.30698; 81.82769
 645.81536;32.33403; 81.81522
 646.37406;32.36115; 81.80155
 646.93276;32.38831; 81.78853
 647.49146;32.41549; 81.77563
 648.05016;32.44269; 81.76269
 648.60886;32.46995; 81.75041
 649.16756;32.49715; 81.73733
 649.72626;32.52437; 81.72361
 650.28496;32.55162; 81.71122
 650.84366;32.57881; 81.69819
 651.40236;32.60596; 81.68594
 651.96106;32.63310; 81.67371
 652.51976;32.66023; 81.66074
 653.07846;32.68739; 81.64789
 653.63716;32.71459; 81.63506
 654.19586;32.74170; 81.62300
 654.75456;32.76874; 81.61131
 655.31326;32.79581; 81.59923
 655.87196;32.82281; 81.58679
 656.43066;32.84989; 81.57434
 656.98936;32.87696; 81.56230
 657.54806;32.90402; 81.54983
 658.10676;32.93109; 81.53704
 658.66546;32.95821; 81.52430
 659.22416;32.98535; 81.51229
 659.78286;33.01245; 81.50056
 660.34156;33.03961; 81.48841
 660.90026;33.06676; 81.47574
 661.45896;33.09390; 81.46422
 662.01766;33.12106; 81.45139
 662.57636;33.14829; 81.43938
 663.13506;33.17546; 81.42795
 663.69376;33.20268; 81.41588
 664.25245;33.22990; 81.40360
 664.81115;33.25698; 81.37772
 665.36985;33.28416; 81.34576
 665.92855;33.31123; 81.32462
 666.48725;33.33835; 81.31016
 667.04595;33.36557; 81.29783
 667.60465;33.39275; 81.28439
 668.16335;33.41996; 81.27264
 668.72205;33.44719; 81.26103
 669.28075;33.47433; 81.24870
 669.83945;33.50147; 81.23724
 670.39815;33.52863; 81.22570
 670.95685;33.55577; 81.21356
 671.51555;33.58293; 81.20221
 672.07425;33.61017; 81.19057
 672.63295;33.63736; 81.17878
 673.19165;33.66455; 81.16698
 673.75035;33.69174; 81.15553
 674.30905;33.71885; 81.14398
 674.86775;33.74600; 81.13264
 675.42645;33.77315; 81.12139
 675.98515;33.80030; 81.10991
 676.54385;33.82750; 81.09746
 677.10255;33.85473; 81.08601
 677.66125;33.88195; 81.07397
 678.21995;33.90914; 81.06310
 678.77865;33.93632; 81.05254
 679.33735;33.96347; 81.04136
 679.89605;33.99056; 81.03081
 680.45475;34.01774; 81.01939
 681.01345;34.04488; 81.00863
 681.57215;34.07204; 80.99760
 682.13085;34.09914; 80.98597
 682.68955;34.12627; 80.97491
 683.24825;34.15345; 80.96312
 683.80695;34.18057; 80.95193
 684.36565;34.20773; 80.94060
 684.92435;34.23489; 80.92883
 685.48305;34.26200; 80.91915
 686.04175;34.28916; 80.90821
 686.60045;34.31628; 80.89694
 687.15915;34.34341; 80.88617
 687.71785;34.37057; 80.87482
 688.27655;34.39770; 80.86368
 688.83525;34.42487; 80.85275
 689.39395;34.45205; 80.84092
 689.95265;34.47916; 80.83026
 690.51135;34.50626; 80.81845
 691.07005;34.53339; 80.80732
 691.62875;34.56055; 80.79685
 692.18745;34.58774; 80.78495
 692.74615;34.61489; 80.77424
 693.30485;34.64205; 80.76330
 693.86355;34.66917; 80.75165
 694.42225;34.69629; 80.74103
 694.98095;34.72341; 80.72905
 695.53965;34.75046; 80.71833
 696.09835;34.77753; 80.70698
 696.65705;34.80461; 80.69563
 697.21575;34.83167; 80.68499
 697.77445;34.85879; 80.67380
 698.33315;34.88595; 80.66330
 698.89185;34.91307; 80.65265
 699.45055;34.94022; 80.64145
 700.00925;34.96734; 80.63033
 700.56795;34.99447; 80.61911
 701.12665;35.02168; 80.60804
 701.68535;35.04886; 80.59718
 702.24405;35.07597; 80.58597
 702.80275;35.10309; 80.57499
 703.36145;35.13020; 80.56462
 703.92015;35.15736; 80.55389
 704.47885;35.18454; 80.54369
 705.03755;35.21174; 80.53306
 705.59625;35.23892; 80.52235
 706.15495;35.26611; 80.51081
 706.71365;35.29339; 80.49893
 707.27234;35.32058; 80.48790
 707.83104;35.34772; 80.47653
 708.38974;35.37480; 80.46614
 708.94844;35.40185; 80.45565
 709.50714;35.42894; 80.44429
 710.06584;35.45607; 80.43370
 710.62454;35.48326; 80.42243
 711.18324;35.51043; 80.41143
 711.74194;35.53756; 80.40066
 712.30064;35.56471; 80.38990
 712.85934;35.59182; 80.37938
 713.41804;35.61907; 80.36858
 713.97674;35.64634; 80.35802
 714.53544;35.67355; 80.34747
 715.09414;35.70081; 80.33558
 715.65284;35.72797; 80.32433
 716.21154;35.75516; 80.31318
 716.77024;35.78233; 80.30245
 717.32894;35.80954; 80.29210
 717.88764;35.83674; 80.28108
 718.44634;35.86386; 80.27040
 719.00504;35.89103; 80.25940
 719.56374;35.91818; 80.24836
 720.12244;35.94536; 80.23773
 720.68114;35.97260; 80.22632
 721.23984;35.99971; 80.21505
 721.79854;36.02687; 80.20363
 722.35724;36.05400; 80.19285
 722.91594;36.08115; 80.18237
 723.47464;36.10835; 80.17104
 724.03334;36.13552; 80.16002
 724.59204;36.16269; 80.14952
 725.15074;36.18984; 80.13849
 725.70944;36.21702; 80.12814
 726.26814;36.24425; 80.11764
 726.82684;36.27146; 80.10620
 727.38554;36.29863; 80.09524
 727.94424;36.32585; 80.08419
 728.50294;36.35304; 80.07343
 729.06164;36.38021; 80.06196
 729.62034;36.40741; 80.05107
 730.17904;36.43448; 80.04103
 730.73774;36.46158; 80.02994
 731.29644;36.48875; 80.02006
 731.85514;36.51592; 80.00943
 732.41384;36.54315; 79.99817
 732.97254;36.57039; 79.98743
 733.53124;36.59764; 79.97694
 734.08994;36.62484; 79.96609
 734.64864;36.65202; 79.95580
 735.20734;36.67916; 79.94493
 735.76604;36.70636; 79.93489
 736.32474;36.73364; 79.92429
 736.88344;36.76090; 79.91334
 737.44214;36.78824; 79.90273
 738.00084;36.81544; 79.89121
 738.55954;36.84268; 79.88066
 739.11824;36.86991; 79.87006
 739.67694;36.89718; 79.85971
 740.23564;36.92453; 79.84877
 740.79434;36.95184; 79.83757
 741.35304;36.97905; 79.82730
 741.91174;37.00626; 79.81654
 742.47044;37.03350; 79.80604
 743.02914;37.06075; 79.79615
 743.58784;37.08800; 79.78547
 744.14654;37.11526; 79.77489
 744.70524;37.14247; 79.76452
 745.26394;37.16973; 79.75354
 745.82264;37.19702; 79.74297
 746.38134;37.22434; 79.73198
 746.94004;37.25165; 79.72178
 747.49874;37.27887; 79.71150
 748.05744;37.30610; 79.70090
 748.61614;37.33333; 79.69054
 749.17484;37.36059; 79.68016
 749.73354;37.38785; 79.67027
 750.29224;37.41517; 79.66016
 750.85093;37.44240; 79.64889
 751.40963;37.46972; 79.63885
 751.96833;37.49701; 79.62891
 752.52703;37.52428; 79.61885
 753.08573;37.55158; 79.60913
 753.64443;37.57889; 79.59917
 754.20313;37.60624; 79.58929
 754.76183;37.63352; 79.57946
 755.32053;37.66082; 79.56852
 755.87923;37.68814; 79.55825
 756.43793;37.71545; 79.54807
 756.99663;37.74271; 79.53864
 757.55533;37.77006; 79.52852
 758.11403;37.79738; 79.51848
 758.67273;37.82475; 79.50970
 759.23143;37.85210; 79.50021
 759.79013;37.87941; 79.49036
 760.34883;37.90671; 79.48092
 760.90753;37.93402; 79.47121
 761.46623;37.96136; 79.46185
 762.02493;37.98877; 79.45216
 762.58363;38.01612; 79.44212
 763.14233;38.04345; 79.43211
 763.70103;38.07084; 79.42168
 764.25973;38.09817; 79.41161
 764.81843;38.12547; 79.40236
 765.37713;38.15276; 79.39250
 765.93583;38.18006; 79.38320
 766.49453;38.20734; 79.37387
 767.05323;38.23472; 79.36437
 767.61193;38.26211; 79.35506
 768.17063;38.28949; 79.34559
 768.72933;38.31678; 79.33759
 769.28803;38.34409; 79.32880
 769.84673;38.37141; 79.31996
 770.40543;38.39873; 79.31196
 770.96413;38.42607; 79.30225
 771.52283;38.45343; 79.29344
 772.08153;38.48079; 79.28329
 772.64023;38.50821; 79.27394
 773.19893;38.53560; 79.26537
 773.75763;38.56300; 79.25571
 774.31633;38.59037; 79.24657
 774.87503;38.61773; 79.23857
 775.43373;38.64514; 79.22954
 775.99243;38.67254; 79.22084
 776.55113;38.69999; 79.21202
 777.10983;38.72743; 79.20262
 777.66853;38.75484; 79.19419
 778.22723;38.78227; 79.18491
 778.78593;38.80972; 79.17644
 779.34463;38.83718; 79.16811
 779.90333;38.86466; 79.15880
 780.46203;38.89210; 79.15019
 781.02073;38.91949; 79.14105
 781.57943;38.94685; 79.13237
 782.13813;38.97425; 79.12532
 782.69683;39.00171; 79.11729
 783.25553;39.02917; 79.11036
 783.81423;39.05662; 79.10346
 784.37293;39.08405; 79.09569
 784.93163;39.11143; 79.08805
 785.49033;39.13880; 79.07979
 786.04903;39.16625; 79.07192
 786.60773;39.19368; 79.06477
 787.16643;39.22119; 79.05623
 787.72513;39.24871; 79.04803
 788.28383;39.27636; 79.03941
 788.84253;39.30402; 79.03132
 789.40123;39.33167; 79.02412
 789.95993;39.35934; 79.01651
 790.51863;39.38695; 79.00937
 791.07733;39.41458; 79.00253
 791.63603;39.44220; 78.99435
 792.19473;39.46976; 78.98659
 792.75343;39.49723; 78.97905
 793.31213;39.52470; 78.97137
 793.87082;39.55229; 78.96463
 794.42952;39.57989; 78.95677
 794.98822;39.60751; 78.94862
 795.54692;39.63513; 78.94146
 796.10562;39.66269; 78.93331
 796.66432;39.69024; 78.92635
 797.22302;39.71780; 78.91937
 797.78172;39.74530; 78.91209
 798.34042;39.77285; 78.90498
 798.89912;39.80035; 78.89753
 799.45782;39.82781; 78.89159
 800.01652;39.85531; 78.88481
 800.57522;39.88283; 78.87739
 801.13392;39.91037; 78.87086
 801.69262;39.93788; 78.86333
 802.25132;39.96540; 78.85621
 802.81002;39.99284; 78.85035
 803.36872;40.02034; 78.84429
 803.92742;40.04783; 78.83899
 804.48612;40.07540; 78.83284
 805.04482;40.10295; 78.82765
 805.60352;40.13056; 78.82183
 806.16222;40.15816; 78.81515
 806.72092;40.18570; 78.80749
 807.27962;40.21326; 78.79875
 807.83832;40.24080; 78.79028
 808.39702;40.26839; 78.78318
 808.95572;40.29588; 78.77667
 809.51442;40.32337; 78.77027
 810.07312;40.35091; 78.76360
 810.63182;40.37847; 78.75833
 811.19052;40.40605; 78.75281
 811.74922;40.43361; 78.74749
 812.30792;40.46109; 78.74220
 812.86662;40.48851; 78.73710
 813.42532;40.51597; 78.73153
 813.98402;40.54353; 78.72564
 814.54272;40.57113; 78.71846
 815.10142;40.59882; 78.71176
 815.66012;40.62646; 78.70571
 816.21882;40.65401; 78.69855
 816.77752;40.68157; 78.69280
 817.33622;40.70910; 78.68671
 817.89492;40.73669; 78.68135
 818.45362;40.76434; 78.67596
 819.01232;40.79196; 78.67094
 819.57102;40.81957; 78.66649
 820.12972;40.84718; 78.66219
 820.68842;40.87480; 78.65647
 821.24712;40.90244; 78.65139
 821.80582;40.93012; 78.64629
 822.36452;40.95774; 78.64007
 822.92322;40.98539; 78.63493
 823.48192;41.01298; 78.62889
 824.04062;41.04048; 78.62330
 824.59932;41.06798; 78.61714
 825.15802;41.09549; 78.61167
 825.71672;41.12299; 78.60630
 826.27542;41.15058; 78.60067
 826.83412;41.17821; 78.59548
 827.39282;41.20582; 78.59039
 827.95152;41.23343; 78.58521
 828.51022;41.26097; 78.57998
 829.06892;41.28848; 78.57531
 829.62762;41.31595; 78.57056
 830.18632;41.34350; 78.56635
 830.74502;41.37103; 78.56103
 831.30372;41.39860; 78.55638
 831.86242;41.42619; 78.55142
 832.42112;41.45380; 78.54618
 832.97982;41.48143; 78.54089
 833.53852;41.50901; 78.53634
 834.09722;41.53654; 78.53083
 834.65592;41.56415; 78.52622
 835.21462;41.59171; 78.52117
 835.77332;41.61932; 78.51595
 836.33202;41.64685; 78.51120
 836.89071;41.67437; 78.50605
 837.44941;41.70187; 78.50137
 838.00811;41.72935; 78.49630
 838.56681;41.75691; 78.49141
 839.12551;41.78452; 78.48630
 839.68421;41.81215; 78.48173
 840.24291;41.83971; 78.47699
 840.80161;41.86727; 78.47199
 841.36031;41.89485; 78.46783
 841.91901;41.92237; 78.46263
 842.47771;41.94995; 78.45794
 843.03641;41.97757; 78.45345
 843.59511;42.00508; 78.44894
 844.15381;42.03264; 78.44431
 844.71251;42.06020; 78.43972
 845.27121;42.08774; 78.43511
 845.82991;42.11536; 78.43056
 846.38861;42.14294; 78.42692
 846.94731;42.17049; 78.42218
 847.50601;42.19807; 78.41761
 848.06471;42.22569; 78.41327
 848.62341;42.25326; 78.40904
 849.18211;42.28089; 78.40475
 849.74081;42.30850; 78.39995
 850.29951;42.33607; 78.39586
 850.85821;42.36371; 78.39101
 851.41691;42.39130; 78.38693
 851.97561;42.41881; 78.38266
 852.53431;42.44642; 78.37758
 853.09301;42.47400; 78.37297
 853.65171;42.50163; 78.36842
 854.21041;42.52930; 78.36371
 854.76911;42.55696; 78.36007
 855.32781;42.58458; 78.35584
 855.88651;42.61230; 78.35196
 856.44521;42.63999; 78.34752
 857.00391;42.66776; 78.34351
 857.56261;42.69561; 78.33920
 858.12131;42.72341; 78.33548
 858.68001;42.75130; 78.33093
 859.23871;42.77909; 78.32695
 859.79741;42.80694; 78.32279
 860.35611;42.83479; 78.31792
 860.91481;42.86257; 78.31472
 861.47351;42.89039; 78.31052
 862.03221;42.91820; 78.30673
 862.59091;42.94600; 78.30254
 863.14961;42.97378; 78.29870
 863.70831;43.00159; 78.29483
 864.26701;43.02943; 78.29043
 864.82571;43.05720; 78.28673
 865.38441;43.08510; 78.28333
 865.94311;43.11283; 78.27847
 866.50181;43.14059; 78.27473
 867.06051;43.16839; 78.27116
 867.61921;43.19619; 78.26637
 868.17791;43.22410; 78.26269
 868.73661;43.25196; 78.25933
 869.29531;43.27973; 78.25597
 869.85401;43.30747; 78.25263
 870.41271;43.33525; 78.24992
 870.97141;43.36299; 78.24653
 871.53011;43.39068; 78.24344
 872.08881;43.41841; 78.23998
 872.64751;43.44608; 78.23655
 873.20621;43.47374; 78.23316
 873.76491;43.50147; 78.22957
 874.32361;43.52912; 78.22595
 874.88231;43.55687; 78.22199
 875.44101;43.58458; 78.21835
 875.99971;43.61227; 78.21471
 876.55841;43.63995; 78.21094
 877.11711;43.66758; 78.20743
 877.67581;43.69526; 78.20377
 878.23451;43.72298; 78.20046
 878.79321;43.75067; 78.19784
 879.35191;43.77830; 78.19436
 879.91061;43.80599; 78.19097
 880.46930;43.83363; 78.18788
 881.02800;43.86132; 78.18475
 881.58670;43.88908; 78.18081
 882.14540;43.91681; 78.17786
 882.70410;43.94453; 78.17347
 883.26280;43.97218; 78.17035
 883.82150;43.99981; 78.16692
 884.38020;44.02748; 78.16355
 884.93890;44.05520; 78.15963
 885.49760;44.08301; 78.15630
 886.05630;44.11079; 78.15285
 886.61500;44.13853; 78.14930
 887.17370;44.16624; 78.14548
 887.73240;44.19390; 78.14271
 888.29110;44.22160; 78.13965
 888.84980;44.24931; 78.13630
 889.40850;44.27702; 78.13332
 889.96720;44.30467; 78.13029
 890.52590;44.33241; 78.12669
 891.08460;44.36004; 78.12315
 891.64330;44.38777; 78.11955
 892.20200;44.41548; 78.11620
 892.76070;44.44318; 78.11344
 893.31940;44.47089; 78.11056
 893.87810;44.49867; 78.10712
 894.43680;44.52646; 78.10417
 894.99550;44.55416; 78.10145
 895.55420;44.58189; 78.09851
 896.11290;44.60953; 78.09574
 896.67160;44.63716; 78.09310
 897.23030;44.66479; 78.08975
 897.78900;44.69247; 78.08707
 898.34770;44.72020; 78.08400
 898.90640;44.74790; 78.08084
 899.46510;44.77563; 78.07779
 900.02380;44.80328; 78.07472
 900.58250;44.83096; 78.07186
 901.14120;44.85869; 78.06809
 901.69990;44.88645; 78.06510
 902.25860;44.91416; 78.06171
 902.81730;44.94195; 78.05801
 903.37600;44.96970; 78.05487
 903.93470;44.99745; 78.05159
 904.49340;45.02518; 78.04847
 905.05210;45.05282; 78.04554
 905.61080;45.08049; 78.04287
 906.16950;45.10814; 78.03953
 906.72820;45.13583; 78.03619
 907.28690;45.16350; 78.03193
 907.84560;45.19118; 78.02862
 908.40430;45.21882; 78.02563
 908.96300;45.24647; 78.02237
 909.52170;45.27410; 78.01977
 910.08040;45.30178; 78.01632
 910.63910;45.32947; 78.01339
 911.19780;45.35716; 78.01039
 911.75650;45.38489; 78.00778
 912.31520;45.41258; 78.00480
 912.87390;45.44027; 78.00238
 913.43260;45.46793; 77.99976
 913.99130;45.49559; 77.99703
 914.55000;45.52324; 77.99444
 915.10870;45.55095; 77.99193
 915.66740;45.57860; 77.98944
 916.22610;45.60626; 77.98618
 916.78480;45.63386; 77.98412
 917.34350;45.66147; 77.98190
 917.90220;45.68913; 77.97873
 918.46090;45.71685; 77.97568
 919.01960;45.74460; 77.97237
 919.57830;45.77226; 77.96878
 920.13700;45.79994; 77.96539
 920.69570;45.82759; 77.96224
 921.25440;45.85528; 77.95899
 921.81310;45.88301; 77.95634
 922.37180;45.91062; 77.95315
 922.93050;45.93827; 77.95038
 923.48919;45.96588; 77.94756
 924.04789;45.99350; 77.94485
 924.60659;46.02110; 77.94236
 925.16529;46.04875; 77.93976
 925.72399;46.07639; 77.93701
 926.28269;46.10408; 77.93441
 926.84139;46.13181; 77.93139
 927.40009;46.15950; 77.92854
 927.95879;46.18720; 77.92570
 928.51749;46.21489; 77.92217
 929.07619;46.24257; 77.91890
 929.63489;46.27029; 77.91626
 930.19359;46.29791; 77.91340
 930.75229;46.32559; 77.91050
 931.31099;46.35327; 77.90717
 931.86969;46.38092; 77.90442
 932.42839;46.40868; 77.90130
 932.98709;46.43638; 77.89784
 933.54579;46.46410; 77.89459
 934.10449;46.49179; 77.89222
 934.66319;46.51945; 77.88965
 935.22189;46.54705; 77.88691
 935.78059;46.57473; 77.88388
 936.33929;46.60240; 77.88132
 936.89799;46.63006; 77.87851
 937.45669;46.65777; 77.87544
 938.01539;46.68540; 77.87250
 938.57409;46.71315; 77.87025
 939.13279;46.74096; 77.86782
 939.69149;46.76868; 77.86490
 940.25019;46.79638; 77.86191
 940.80889;46.82406; 77.85900
 941.36759;46.85171; 77.85650
 941.92629;46.87944; 77.85407
 942.48499;46.90707; 77.85144
 943.04369;46.93473; 77.84823
 943.60239;46.96235; 77.84569
 944.16109;46.99003; 77.84223
 944.71979;47.01774; 77.83942
 945.27849;47.04549; 77.83681
 945.83719;47.07319; 77.83379
 946.39589;47.10086; 77.83143
 946.95459;47.12854; 77.82830
 947.51329;47.15629; 77.82499
 948.07199;47.18400; 77.82204
 948.63069;47.21175; 77.81903
 949.18939;47.23953; 77.81700
 949.74809;47.26728; 77.81358
 950.30679;47.29506; 77.81048
 950.86549;47.32280; 77.80794
 951.42419;47.35047; 77.80532
 951.98289;47.37812; 77.80249
 952.54159;47.40582; 77.79872
 953.10029;47.43357; 77.79598
 953.65899;47.46138; 77.79370
 954.21769;47.48915; 77.79137
 954.77639;47.51690; 77.78848
 955.33509;47.54462; 77.78571
 955.89379;47.57235; 77.78306
 956.45249;47.60012; 77.78024
 957.01119;47.62793; 77.77824
 957.56989;47.65576; 77.77607
 958.12859;47.68360; 77.77381
 958.68729;47.71141; 77.77107
 959.24599;47.73919; 77.76818
 959.80469;47.76699; 77.76527
 960.36339;47.79478; 77.76224
 960.92209;47.82262; 77.76005
 961.48079;47.85045; 77.75787
 962.03949;47.87826; 77.75471
 962.59819;47.90611; 77.75189
 963.15689;47.93399; 77.74907
 963.71559;47.96187; 77.74616
 964.27429;47.98976; 77.74338
 964.83299;48.01755; 77.74026
 965.39169;48.04546; 77.73788
 965.95039;48.07331; 77.73531
 966.50908;48.10113; 77.73281
 967.06778;48.12899; 77.73009
 967.62648;48.15681; 77.72769
 968.18518;48.18466; 77.72527
 968.74388;48.21253; 77.72379
 969.30258;48.24040; 77.72187
 969.86128;48.26824; 77.71863
 970.41998;48.29610; 77.71619
 970.97868;48.32400; 77.71277
 971.53738;48.35193; 77.70995
 972.09608;48.37987; 77.70672
 972.65478;48.40781; 77.70385
 973.21348;48.43576; 77.70155
 973.77218;48.46369; 77.69923
 974.33088;48.49164; 77.69650
 974.88958;48.51957; 77.69378
 975.44828;48.54747; 77.69071
 976.00698;48.57535; 77.68770
 976.56568;48.60326; 77.68577
 977.12438;48.63115; 77.68242
 977.68308;48.65906; 77.68067
 978.24178;48.68704; 77.67767
 978.80048;48.71495; 77.67459
 979.35918;48.74287; 77.67183
 979.91788;48.77079; 77.66860
 980.47658;48.79870; 77.66581
 981.03528;48.82656; 77.66268
 981.59398;48.85452; 77.65950
 982.15268;48.88249; 77.65693
 982.71138;48.91045; 77.65433
 983.27008;48.93837; 77.65160
 983.82878;48.96629; 77.64926
 984.38748;48.99426; 77.64711
 984.94618;49.02226; 77.64520
 985.50488;49.05033; 77.64295
 986.06358;49.07829; 77.64068
 986.62228;49.10623; 77.63743
 987.18098;49.13422; 77.63527
 987.73968;49.16217; 77.63285
 988.29838;49.19025; 77.63007
 988.85708;49.21829; 77.62825
 989.41578;49.24635; 77.62505
 989.97448;49.27447; 77.62306
 990.53318;49.30253; 77.62055
 991.09188;49.33059; 77.61738
 991.65058;49.35862; 77.61483
 992.20928;49.38656; 77.61180
 992.76798;49.41465; 77.60931
 993.32668;49.44274; 77.60712
 993.88538;49.47086; 77.60451
 994.44408;49.49899; 77.60163
 995.00278;49.52705; 77.59832
 995.56148;49.55510; 77.59598
 996.12018;49.58320; 77.59283
 996.67888;49.61122; 77.59121
 997.23758;49.63933; 77.58770
 997.79628;49.66737; 77.58555
 998.35498;49.69542; 77.58256
 998.91368;49.72345; 77.58000
 999.47238;49.75149; 77.57717
1000.03108;49.77955; 77.57396
1000.58978;49.80765; 77.57114
1001.14848;49.83575; 77.56817
1001.70718;49.86377; 77.56529
1002.26588;49.89182; 77.56237
1002.82458;49.91980; 77.55983
1003.38328;49.94776; 77.55687
1003.94198;49.97581; 77.55421
1004.50068;50.00386; 77.55136
1005.05938;50.03195; 77.54875
1005.61808;50.06009; 77.54636
1006.17678;50.08818; 77.54387
1006.73548;50.11624; 77.54101
1007.29418;50.14433; 77.53834
1007.85288;50.17239; 77.53621
1008.41158;50.20043; 77.53322
1008.97028;50.22851; 77.53037
1009.52898;50.25656; 77.52712
1010.08767;50.28461; 77.52472
1010.64637;50.31269; 77.52215
1011.20507;50.34072; 77.51988
1011.76377;50.36877; 77.51726
1012.32247;50.39679; 77.51457
1012.88117;50.42482; 77.51200
1013.43987;50.45291; 77.51040
1013.99857;50.48096; 77.50803
1014.55727;50.50907; 77.50535
1015.11597;50.53710; 77.50292
1015.67467;50.56510; 77.50044
1016.23337;50.59319; 77.49798
1016.79207;50.62126; 77.49523
1017.35077;50.64935; 77.49275
1017.90947;50.67736; 77.49005
1018.46817;50.70538; 77.48763
1019.02687;50.73332; 77.48519
1019.58557;50.76126; 77.48214
1020.14427;50.78926; 77.47955
1020.70297;50.81723; 77.47665
1021.26167;50.84525; 77.47396
1021.82037;50.87329; 77.47142
1022.37907;50.90128; 77.46830
1022.93777;50.92931; 77.46595
1023.49647;50.95736; 77.46371
1024.05517;50.98544; 77.46080
1024.61387;51.01347; 77.45812
1025.17257;51.04149; 77.45509
1025.73127;51.06952; 77.45228
1026.28997;51.09755; 77.44896
1026.84867;51.12562; 77.44650
1027.40737;51.15362; 77.44411
1027.96607;51.18162; 77.44160
1028.52477;51.20963; 77.43909
1029.08347;51.23767; 77.43600
1029.64217;51.26574; 77.43315
1030.20087;51.29384; 77.43077
1030.75957;51.32184; 77.42806
1031.31827;51.34989; 77.42534
1031.87697;51.37793; 77.42242
1032.43567;51.40598; 77.41994
1032.99437;51.43408; 77.41756
1033.55307;51.46207; 77.41466
1034.11177;51.49010; 77.41152
1034.67047;51.51809; 77.40844
1035.22917;51.54616; 77.40593
1035.78787;51.57422; 77.40380
1036.34657;51.60227; 77.40104
1036.90527;51.63031; 77.39874
1037.46397;51.65837; 77.39593
1038.02267;51.68640; 77.39333
1038.58137;51.71437; 77.39068
1039.14007;51.74238; 77.38774
1039.69877;51.77040; 77.38499
1040.25747;51.79846; 77.38239
1040.81617;51.82648; 77.37929
1041.37487;51.85451; 77.37654
1041.93357;51.88253; 77.37432
1042.49227;51.91057; 77.37117
1043.05097;51.93869; 77.36869
1043.60967;51.96682; 77.36572
1044.16837;51.99490; 77.36327
1044.72707;52.02297; 77.36006
1045.28577;52.05095; 77.35724
1045.84447;52.07895; 77.35541
1046.40317;52.10694; 77.35252
1046.96187;52.13492; 77.34946
1047.52057;52.16295; 77.34772
1048.07927;52.19092; 77.34581
1048.63797;52.21899; 77.34366
1049.19667;52.24701; 77.34150
1049.75537;52.27502; 77.33830
1050.31407;52.30304; 77.33586
1050.87277;52.33109; 77.33280
1051.43147;52.35913; 77.33025
1051.99017;52.38722; 77.32848
1052.54887;52.41532; 77.32584
1053.10756;52.44336; 77.32335
1053.66626;52.47138; 77.32024
1054.22496;52.49936; 77.31809
1054.78366;52.52732; 77.31481
1055.34236;52.55533; 77.31248
1055.90106;52.58337; 77.31005
1056.45976;52.61145; 77.30725
1057.01846;52.63958; 77.30456
1057.57716;52.66768; 77.30092
1058.13586;52.69573; 77.29859
1058.69456;52.72379; 77.29528
1059.25326;52.75181; 77.29308
1059.81196;52.77986; 77.28968
1060.37066;52.80793; 77.28739
1060.92936;52.83601; 77.28521
1061.48806;52.86413; 77.28233
1062.04676;52.89228; 77.27922
1062.60546;52.92037; 77.27725
1063.16416;52.94843; 77.27422
1063.72286;52.97650; 77.27071
1064.28156;53.00458; 77.26693
1064.84026;53.03271; 77.26375
1065.39896;53.06081; 77.26024
1065.95766;53.08894; 77.25677
1066.51636;53.11699; 77.25368
1067.07506;53.14510; 77.25066
1067.63376;53.17326; 77.24773
1068.19246;53.20143; 77.24537
1068.75116;53.22958; 77.24232
1069.30986;53.25774; 77.23999
1069.86856;53.28591; 77.23764
1070.42726;53.31410; 77.23533
1070.98596;53.34232; 77.23278
1071.54466;53.37053; 77.23008
1072.10336;53.39870; 77.22729
1072.66206;53.42694; 77.22492
1073.22076;53.45518; 77.22222
1073.77946;53.48342; 77.21963
1074.33816;53.51170; 77.21702
1074.89686;53.53991; 77.21402
1075.45556;53.56820; 77.21157
1076.01426;53.59649; 77.20827
1076.57296;53.62469; 77.20531
1077.13166;53.65290; 77.20242
1077.69036;53.68116; 77.19922
1078.24906;53.70948; 77.19636
1078.80776;53.73783; 77.19289
1079.36646;53.76624; 77.18981
1079.92516;53.79459; 77.18730
1080.48386;53.82296; 77.18420
1081.04256;53.85130; 77.18144
1081.60126;53.87965; 77.17873
1082.15996;53.90800; 77.17548
1082.71866;53.93640; 77.17247
1083.27736;53.96478; 77.16933
1083.83606;53.99319; 77.16561
1084.39476;54.02166; 77.16253
1084.95346;54.05011; 77.16046
1085.51216;54.07852; 77.15889
1086.07086;54.10693; 77.15646
1086.62956;54.13536; 77.15395
1087.18826;54.16380; 77.15161
1087.74696;54.19234; 77.14845
1088.30566;54.22085; 77.14564
1088.86436;54.24939; 77.14308
1089.42306;54.27784; 77.13996
1089.98176;54.30634; 77.13807
1090.54046;54.33485; 77.13514
1091.09916;54.36330; 77.13216
1091.65786;54.39184; 77.12890
1092.21656;54.42038; 77.12592
1092.77526;54.44894; 77.12330
1093.33396;54.47751; 77.12018
1093.89266;54.50607; 77.11734
1094.45136;54.53459; 77.11450
1095.01006;54.56322; 77.11173
1095.56876;54.59185; 77.10851
1096.12745;54.62048; 77.10561
1096.68615;54.64916; 77.10246
1097.24485;54.67780; 77.09931
1097.80355;54.70641; 77.09649
1098.36225;54.73506; 77.09403
1098.92095;54.76370; 77.09106
1099.47965;54.79236; 77.08867
1100.03835;54.82098; 77.08632
1100.59705;54.84961; 77.08306
1101.15575;54.87834; 77.08079
1101.71445;54.90700; 77.07726
1102.27315;54.93576; 77.07430
1102.83185;54.96444; 77.07117
1103.39055;54.99310; 77.06835
1103.94925;55.02181; 77.06555
1104.50795;55.05055; 77.06252
1105.06665;55.07930; 77.06001
1105.62535;55.10799; 77.05747
1106.18405;55.13666; 77.05498
1106.74275;55.16539; 77.05194
1107.30145;55.19414; 77.04934
1107.86015;55.22297; 77.04692
1108.41885;55.25174; 77.04473
1108.97755;55.28062; 77.04166
1109.53625;55.30951; 77.03866
1110.09495;55.33835; 77.03620
1110.65365;55.36718; 77.03370
1111.21235;55.39600; 77.03030
1111.77105;55.42476; 77.02836
1112.32975;55.45360; 77.02550
1112.88845;55.48239; 77.02136
1113.44715;55.51115; 77.01905
1114.00585;55.53999; 77.01612
1114.56455;55.56881; 77.01240
1115.12325;55.59770; 77.00917
1115.68195;55.62660; 77.00611
1116.24065;55.65545; 77.00210
1116.79935;55.68433; 76.99866
1117.35805;55.71314; 76.99567
1117.91675;55.74206; 76.99276
1118.47545;55.77096; 76.98965
1119.03415;55.79987; 76.98650
1119.59285;55.82885; 76.98298
1120.15155;55.85768; 76.98050
1120.71025;55.88662; 76.97781
1121.26895;55.91555; 76.97542
1121.82765;55.94447; 76.97266
1122.38635;55.97342; 76.96896
1122.94505;56.00236; 76.96615
1123.50375;56.03133; 76.96350
1124.06245;56.06032; 76.96058
1124.62115;56.08926; 76.95749
1125.17985;56.11822; 76.95522
1125.73855;56.14712; 76.95212
1126.29725;56.17604; 76.94913
1126.85595;56.20496; 76.94644
1127.41465;56.23396; 76.94379
1127.97335;56.26296; 76.94154
1128.53205;56.29196; 76.93845
1129.09075;56.32093; 76.93593
1129.64945;56.34986; 76.93303
1130.20815;56.37887; 76.92972
1130.76685;56.40786; 76.92687
1131.32555;56.43686; 76.92342
1131.88425;56.46585; 76.92046
1132.44295;56.49487; 76.91779
1133.00165;56.52397; 76.91473
1133.56035;56.55301; 76.91153
1134.11905;56.58202; 76.90789
1134.67775;56.61096; 76.90419
1135.23645;56.63994; 76.90082
1135.79515;56.66892; 76.89834
1136.35385;56.69795; 76.89514
1136.91255;56.72699; 76.89201
1137.47125;56.75601; 76.88917
1138.02995;56.78501; 76.88633
1138.58865;56.81401; 76.88351
1139.14735;56.84299; 76.88030
1139.70604;56.87198; 76.87788
1140.26474;56.90097; 76.87443
1140.82344;56.92994; 76.87194
1141.38214;56.95894; 76.86868
1141.94084;56.98793; 76.86594
1142.49954;57.01688; 76.86313
1143.05824;57.04582; 76.86081
1143.61694;57.07481; 76.85784
1144.17564;57.10370; 76.85516
1144.73434;57.13272; 76.85163
1145.29304;57.16169; 76.84867
1145.85174;57.19061; 76.84569
1146.41044;57.21963; 76.84261
1146.96914;57.24859; 76.83973
1147.52784;57.27756; 76.83693
1148.08654;57.30649; 76.83364
1148.64524;57.33539; 76.83042
1149.20394;57.36432; 76.82740
1149.76264;57.39331; 76.82469
1150.32134;57.42224; 76.82182
1150.88004;57.45117; 76.81870
1151.43874;57.48002; 76.81566
1151.99744;57.50885; 76.81302
1152.55614;57.53767; 76.80967
1153.11484;57.56652; 76.80682
1153.67354;57.59536; 76.80389
1154.23224;57.62426; 76.80111
1154.79094;57.65310; 76.79780
1155.34964;57.68207; 76.79517
1155.90834;57.71088; 76.79220

