Curve Total Energy
0 -200737.6513970522
50 -199984.8554735283
100 -199116.2471615729
150 -198336.3830926131
200 -197586.8589589496
250 -196912.0759388744
300 -196291.7935628008
350 -195705.1102831097
400 -195174.451355335
450 -194663.9545956306
500 -194195.7929581206
550 -193752.3955827709
600 -193332.9809838949
650 -192932.6275116678
700 -192557.90685635
750 -192247.3803493595
800 -191960.452814024
850 -191679.6820095775
900 -191408.4003667855
950 -191161.0673667692
1000 -190898.0569080331
1050 -190675.5128457017
1100 -190461.6850556635
1150 -190258.6591710741
1200 -190050.668273989
1250 -189878.1036815092
1300 -189713.5426547939
1350 -189574.6036019709
1400 -189427.788936875
1450 -189300.2366222458
1500 -189160.9530733853
1550 -189041.8482187238
1600 -188897.2144801684
1650 -188803.6076331718
1700 -188715.934903788
1750 -188608.2646820771
1800 -188513.441732682
1850 -188429.6554080347
1900 -188333.3210034676
1950 -188248.436926172
2000 -188140.8943596664
2050 -188052.9290309935
2100 -187988.9710847081
2150 -187861.6304634425
2200 -187802.8704954118
2250 -187760.1249416622
2300 -187687.7619040271
2350 -187659.6232523033
2400 -187629.6609820786
2450 -187605.1433001052
2500 -187557.8534191751
2550 -187528.1471754892
2600 -187505.2477888048
2650 -187482.4700711915
2700 -187455.9988283695
2750 -187437.0558452615
2800 -187400.4684153688
2850 -187349.2152553012
2900 -187348.6311934895
2950 -187318.0465655887
3000 -187301.0957538838
3050 -187282.2317586244
3100 -187249.7410565556
3150 -187222.1713037407
3200 -187217.9016833208
3250 -187190.5588488367
3300 -187167.1380723823
3350 -187136.0890825051
3400 -187118.1981685385
3450 -187100.8202263573
3500 -187074.2390017794
3550 -187057.0455163934
3600 -187044.4529891538
3650 -187043.2151108164
3700 -187031.1542629514
3750 -187010.5604778936
3800 -186974.9805968885
3850 -186976.9328753506
3900 -186964.2572596578
3950 -186963.780770384
4000 -186972.1974479736
4050 -186950.7023286715
4100 -186922.4339486498
4150 -186893.1356197285
4200 -186876.4149998417
4250 -186850.1154273319
4300 -186837.8367870414
4350 -186832.2725190653
4400 -186818.3698962089
4450 -186803.3465054059
4500 -186763.2694344644
4550 -186749.6392343287
4600 -186756.4304853352
4650 -186758.5912580924
4700 -186768.4216781254
4750 -186782.6758060395
4800 -186745.6045469898
4850 -186683.5364392733
4900 -186658.2143084789
4950 -186654.8906134324
5000 -186635.6871755631
5050 -186646.9142383534
5100 -186626.2912084799
5150 -186602.2886774505
5200 -186581.9258366567
5250 -186577.3281188837
5300 -186566.7152795447
5350 -186571.130846222
5400 -186547.7632597305
5450 -186529.5211789294
5500 -186517.346258615
5550 -186518.9900325443
5600 -186524.4173557912
5650 -186512.2867928799
5700 -186519.6319041582
5750 -186519.3038859768
5800 -186518.595725344
5850 -186519.4324256245
5900 -186521.8787858862
5950 -186540.9622968092
6000 -186556.6635918688
6050 -186554.8764136296
6100 -186534.8412082673
6150 -186522.8217687705
6200 -186484.7896202353
6250 -186462.7962582667
6300 -186430.2107168834
6350 -186405.4653867327
6400 -186394.9581972202
6450 -186358.7563361742
6500 -186337.0200572229
6550 -186317.3514989839
6600 -186289.2747550926
6650 -186283.2967709915
6700 -186286.0621892941
6750 -186272.4104174343
6800 -186256.1219579382
6850 -186229.8724721848
6900 -186237.8389384583
6950 -186233.0222883759
7000 -186232.7223595026
7050 -186202.8553462587
7100 -186190.275943279
7150 -186192.6738034971
7200 -186174.1229554832
7250 -186165.0414135459
7300 -186164.0862522685
7350 -186172.2105848179
7400 -186175.7095891437
7450 -186171.6750334429
7500 -186178.3860327924
7550 -186168.3440880558
7600 -186160.4173574181
7650 -186146.7712566977
7700 -186155.0345581392
7750 -186145.9955073543
7800 -186148.4274892271
7850 -186112.5706104253
7900 -186117.8173419047
7950 -186105.8416802391
8000 -186108.8937924684
8050 -186094.6636743977
8100 -186078.2462693813
8150 -186062.592703592
8200 -186051.9045175576
8250 -186052.0685289651
8300 -186048.8588073693
8350 -186054.5396574626
8400 -186055.7092733956
8450 -186067.7271143514
8500 -186043.7917504804
8550 -186021.7541893072
8600 -186028.8127549171
8650 -186051.0502836262
8700 -186087.1179333479
8750 -186080.6391856736
8800 -186060.3881417472
8850 -186074.9357839692
8900 -186079.3624329125
8950 -186084.0693945116
9000 -186112.7900670439
9050 -186135.0494050171
9100 -186138.0184807251
9150 -186134.5650913342
9200 -186129.5323305126
9250 -186134.322778813
9300 -186100.3795070379
9350 -186076.3064838083
9400 -186073.8388204326
9450 -186081.1719339086
9500 -186060.2953441743
9550 -186071.1935450929
9600 -186087.1317118366
9650 -186122.033965112
9700 -186146.3898661606
9750 -186143.5202602328
9800 -186143.353389641
9850 -186149.606160325
9900 -186163.7530857413
9950 -186182.8286613829
10000 -186186.0495517151
10050 -186178.123808961
10100 -186195.1763738129
10150 -186212.0254110912
10200 -186221.5135151746
10250 -186186.9694504944
10300 -186180.8095944851
10350 -186187.8243633364
10400 -186193.321408936
10450 -186186.9329912936
10500 -186210.9339392069
10550 -186227.5596835839
10600 -186253.5058721378
10650 -186269.9691956207
10700 -186265.4430554693
10750 -186269.836671383
10800 -186261.4858094053
10850 -186272.9878082554
10900 -186281.8153763682
10950 -186277.8756677172
11000 -186277.2714042343
11050 -186275.6054329592
11100 -186299.875824696
11150 -186295.7097301669
11200 -186235.96791158
11250 -186223.8875666054
11300 -186235.76127254
11350 -186227.5199176862
11400 -186209.1513163656
11450 -186187.7984745758
11500 -186182.4300046043
11550 -186173.808524944
11600 -186163.689829215
11650 -186171.7394205103
11700 -186178.5988295049
11750 -186181.180742535
11800 -186186.0189781405
11850 -186185.5123454266
11900 -186187.9085190075
11950 -186196.851382599
12000 -186204.5431887178
12050 -186174.6532348136
12100 -186157.9463456191
12150 -186143.0577137134
12200 -186141.7342148107
12250 -186125.292034344
12300 -186070.6364536253
12350 -186069.8536564135
12400 -186033.977723846
12450 -185994.294491498
12500 -185993.0756871319
12550 -185977.2000689408
12600 -185991.7702312851
12650 -185981.4668917035
12700 -185981.0760629595
12750 -185966.7130658668
12800 -185969.3719861714
12850 -185947.9884121027
12900 -185951.4137436602
12950 -185934.1776065845
13000 -185936.7509939034
13050 -185940.8994718071
13100 -185951.2139972741
13150 -185917.836419411
13200 -185942.4625140721
13250 -185941.6013441189
13300 -185918.6596215123
13350 -185903.1397050994
13400 -185891.3176005962
13450 -185864.3730627708
13500 -185875.9740985553
13550 -185896.3416791323
13600 -185901.5447570229
13650 -185898.9687761111
13700 -185887.132649665
13750 -185858.5618358062
13800 -185853.7689293783
13850 -185879.3227740739
13900 -185891.9783559386
13950 -185890.2825518725
14000 -185867.4704801633
14050 -185845.5352734891
14100 -185837.3450184968
14150 -185841.3960536255
14200 -185834.8462046128
14250 -185822.5934819398
14300 -185802.4685981055
14350 -185772.2583059465
14400 -185748.4735156573
14450 -185748.5766224812
14500 -185719.5852183198
14550 -185679.4540883069
14600 -185660.5390311465
14650 -185674.1053344244
14700 -185652.6251643899
14750 -185629.8807533339
14800 -185583.0322835839
14850 -185571.3695797172
14900 -185553.0322446037
14950 -185563.9104543164
15000 -185560.0700889209
15050 -185544.5264440284
15100 -185565.7808838114
15150 -185546.2999841565
15200 -185531.4333121226
15250 -185522.1842982178
15300 -185539.75269974
15350 -185521.9672790001
15400 -185527.7204969633
15450 -185528.5080254697
15500 -185514.6350996848
15550 -185503.6306623511
15600 -185532.582360697
15650 -185534.4875831082
15700 -185556.0716514889
15750 -185549.3565013104
15800 -185560.5663807807
15850 -185569.9872475566
15900 -185592.1883439557
15950 -185582.8786512751
16000 -185588.2622015109
16050 -185606.620861697
16100 -185569.0603261481
16150 -185568.0855413548
16200 -185579.8785349666
16250 -185576.176221253
16300 -185583.5793997542
16350 -185576.9406690776
16400 -185569.8348202203
16450 -185571.4466390961
16500 -185572.2467399347
16550 -185598.3770210177
16600 -185591.3068254155
16650 -185575.14887351
16700 -185575.0037621202
16750 -185600.7484780676
16800 -185612.9883418091
16850 -185641.7799626565
16900 -185620.5555086944
16950 -185619.6725992333
17000 -185606.2648992513
17050 -185634.3371327008
17100 -185653.5866564622
17150 -185653.6812211861
17200 -185636.4521309136
17250 -185590.9382844456
17300 -185582.8915335786
17350 -185551.6061693823
17400 -185554.8251316206
17450 -185560.3758565715
17500 -185545.7808957213
17550 -185544.4062990921
17600 -185538.11061284
17650 -185534.0825671252
17700 -185535.031393686
17750 -185514.064115877
17800 -185514.2895707256
17850 -185511.9152492771
17900 -185483.0286636611
17950 -185480.0030050999
18000 -185478.10978028
18050 -185480.03497515
18100 -185477.8762524197
18150 -185509.6109793771
18200 -185533.6332881689
18250 -185541.8299817411
18300 -185541.2728817007
18350 -185539.3074446303
18400 -185561.9958632196
18450 -185565.7419485171
18500 -185580.9825597369
18550 -185602.8137397899
18600 -185610.7516104706
18650 -185605.1822678605
18700 -185594.2602152375
18750 -185568.5959978854
18800 -185559.595074102
18850 -185559.0053397042
18900 -185548.4869594623
18950 -185567.2685789248
19000 -185581.9790322001
19050 -185583.1365723371
19100 -185574.2223946426
19150 -185562.9406449764
19200 -185568.0360580661
19250 -185557.2630453614
19300 -185535.8999306285
19350 -185534.1062657671
19400 -185550.3580863317
19450 -185546.9112414745
19500 -185548.3462800749
19550 -185535.9938971092
19600 -185546.4500727654
19650 -185552.9804979723
19700 -185564.0887170459
19750 -185544.1550078968
19800 -185551.6987587488
19850 -185532.0355466985
19900 -185513.8107795905
19950 -185530.0868747397
20000 -185522.2680685901
20050 -185530.3311387072
20100 -185528.1558100993
20150 -185547.0382731505
20200 -185549.81161744
20250 -185534.2727555349
20300 -185508.6874196012
20350 -185485.8959118239
20400 -185468.5503999358
20450 -185459.3675003768
20500 -185429.1233663751
20550 -185411.6634873055
20600 -185385.9496570816
20650 -185379.6952800303
20700 -185380.1283819574
20750 -185349.1706297495
20800 -185346.964869741
20850 -185342.311342242
20900 -185358.7587107557
20950 -185335.2880663087
21000 -185324.5445898594
21050 -185336.1068888585
21100 -185327.1482712923
21150 -185339.7074072969
21200 -185334.392337182
21250 -185338.368072317
21300 -185290.5855762528
21350 -185268.155053698
21400 -185253.5172169628
21450 -185259.4058650113
21500 -185218.1317795974
21550 -185215.5812521017
21600 -185218.7050541495
21650 -185218.1499851479
21700 -185252.2316567483
21750 -185254.4396304844
21800 -185264.9216356118
21850 -185277.1793439758
21900 -185296.3854801972
21950 -185319.9164302142
22000 -185348.9745705532
22050 -185397.2576093698
22100 -185395.722263087
22150 -185412.8158890127
22200 -185416.8830944104
22250 -185416.0556967093
22300 -185406.1640502026
22350 -185391.6579170178
22400 -185398.0178232385
22450 -185406.9847577147
22500 -185404.9317884617
22550 -185407.1555248676
22600 -185402.907785335
22650 -185401.6946150024
22700 -185397.9965404389
22750 -185414.8453514701
22800 -185400.1048877508
22850 -185388.1196733231
22900 -185371.1386984467
22950 -185356.6433575543
23000 -185350.1532366061
23050 -185334.4473810956
23100 -185324.5442099859
23150 -185324.6247597809
23200 -185290.6279915221
23250 -185259.5377711304
23300 -185262.4743381486
23350 -185256.0512066849
23400 -185256.8027124972
23450 -185253.6046221656
23500 -185203.2799590792
23550 -185205.8960704623
23600 -185185.4568673946
23650 -185166.0068102097
23700 -185164.4936089456
23750 -185157.6704527448
23800 -185170.9342138868
23850 -185176.526119451
23900 -185183.0663043665
23950 -185181.8110074423
24000 -185130.9471128753
24050 -185171.8194336835
24100 -185178.4120416283
24150 -185194.6193458666
24200 -185200.9604379723
24250 -185219.2603658796
24300 -185240.6755168267
24350 -185244.5479981827
24400 -185232.2249557501
24450 -185243.5995862926
24500 -185244.5248283798
24550 -185224.0898446499
24600 -185244.1475886425
24650 -185248.3756426264
24700 -185264.4164471985
24750 -185257.6835182397
24800 -185260.0095503354
24850 -185247.2623940487
24900 -185245.7372710416
24950 -185251.52048633
25000 -185267.357734403
25050 -185266.9492782996
25100 -185271.2191457459
25150 -185276.5501400221
25200 -185256.5376002586
25250 -185280.8177753736
25300 -185304.9986379535
25350 -185295.647439239
25400 -185294.7000042525
25450 -185308.3900889272
25500 -185343.8659935659
25550 -185369.2924625378
25600 -185386.1229146977
25650 -185363.0150919323
25700 -185353.3191383492
25750 -185352.5053928312
25800 -185322.4607705923
25850 -185326.6814641707
25900 -185333.4227166376
25950 -185342.8191454922
26000 -185321.9164201316
26050 -185303.8298150131
26100 -185322.2035009746
26150 -185326.3507255922
26200 -185301.1626784346
26250 -185281.3094171005
26300 -185271.1793432924
26350 -185266.527740312
26400 -185266.009626092
26450 -185268.1815209915
26500 -185296.4225976355
26550 -185319.1621705051
26600 -185330.3643741008
26650 -185367.4883087481
26700 -185356.893994197
26750 -185348.1567549529
26800 -185321.8962491595
26850 -185319.8503855286
26900 -185325.3688228545
26950 -185319.1678801847
27000 -185310.9490835459
27050 -185332.1705057103
27100 -185311.7793260599
27150 -185280.313275442
27200 -185297.1845353846
27250 -185287.2388325278
27300 -185305.2500443202
27350 -185311.7821240991
27400 -185312.0392078325
27450 -185320.5590418979
27500 -185308.2848824809
27550 -185313.5101529532
27600 -185306.7182641309
27650 -185299.5760532465
27700 -185291.5642757191
27750 -185310.136467272
27800 -185313.5343836122
27850 -185308.2842144162
27900 -185323.4892544698
27950 -185323.4448872065
28000 -185309.0351422494
28050 -185300.0554644262
28100 -185283.9045102077
28150 -185302.5408921517
28200 -185286.2141370854
28250 -185260.6059002095
28300 -185260.3586817359
28350 -185253.9684424948
28400 -185232.9543435613
28450 -185256.1228592375
28500 -185259.3161531648
28550 -185248.6037252021
28600 -185246.244638593
28650 -185253.4849363815
28700 -185252.5155156566
28750 -185227.2213308269
28800 -185230.2081653808
28850 -185227.9093651667
28900 -185213.6763440887
28950 -185211.7782035565
29000 -185199.1458692669
29050 -185182.2244078079
29100 -185170.0799210843
29150 -185187.0375247472
29200 -185188.2522930902
29250 -185172.1812317176
29300 -185179.7075559521
29350 -185192.3565014493
29400 -185180.5320151358
29450 -185174.1268118736
29500 -185152.5416072006
29550 -185152.1687037933
29600 -185168.7225658662
29650 -185184.8173364709
29700 -185181.3177414507
29750 -185212.8788464736
29800 -185235.1894473137
29850 -185253.3395522629
29900 -185250.7802827736
29950 -185251.3983543811
30000 -185212.6397159828
30050 -185183.6265402837
30100 -185187.2910552204
30150 -185189.4485024772
30200 -185196.0845840844
30250 -185190.8555489886
30300 -185197.3471140232
30350 -185202.6214691445
30400 -185229.6583634699
30450 -185240.1006636041
30500 -185251.8729812992
30550 -185244.9358673295
30600 -185259.2415490373
30650 -185229.3905598947
30700 -185234.8886302458
30750 -185235.1261825876
30800 -185223.012555902
30850 -185196.2600803896
30900 -185214.3896421285
30950 -185220.4655295376
31000 -185211.2046735701
31050 -185210.8398714106
31100 -185222.4984099956
31150 -185241.5042828618
31200 -185246.5024280882
31250 -185237.0828163259
31300 -185241.8978297149
31350 -185247.4526160597
31400 -185243.3848492092
31450 -185245.6385919473
31500 -185243.0043125235
31550 -185255.5989547748
31600 -185232.6565201023
31650 -185224.1830425949
31700 -185221.0937862947
31750 -185195.0960566809
31800 -185189.5729819412
31850 -185201.2553315242
31900 -185206.7536524014
31950 -185228.5403168444
32000 -185236.0430093456
32050 -185230.8979100321
32100 -185232.9271503556
32150 -185240.5710155909
32200 -185239.8840714945
32250 -185256.6714263534
32300 -185270.4286634841
32350 -185300.4102862219
32400 -185316.0237878037
32450 -185308.2742335629
32500 -185297.8846813496
32550 -185296.524353564
32600 -185293.1702072996
32650 -185317.2271900692
32700 -185313.2583233501
32750 -185332.015681405
32800 -185340.6537153104
32850 -185338.2040114534
32900 -185327.4392461617
32950 -185304.2265546504
33000 -185316.6054468953
33050 -185293.6223500949
33100 -185305.0833079005
33150 -185321.9345842424
33200 -185328.5745362641
33250 -185312.9215779161
33300 -185321.8340127906
33350 -185312.5929654198
33400 -185303.6087461765
33450 -185309.4537123429
33500 -185323.3624204932
33550 -185311.9370137474
33600 -185297.4758869093
33650 -185290.9616628061
33700 -185303.5207586752
33750 -185296.177845641
33800 -185308.9477629474
33850 -185288.9038673881
33900 -185300.7112807004
33950 -185297.299891911
34000 -185268.627730189
34050 -185228.4595882201
34100 -185183.6232948733
34150 -185191.9234387478
34200 -185189.6668386973
34250 -185192.3022901187
34300 -185201.1654236316
34350 -185220.2999973438
34400 -185221.7901189465
34450 -185247.7584124944
34500 -185219.0996996931
34550 -185221.1309687844
34600 -185224.4353891995
34650 -185234.7567734553
34700 -185238.4364044321
34750 -185214.9347121542
34800 -185206.1337841188
34850 -185214.2825361566
34900 -185211.7203651494
34950 -185203.2176825453
35000 -185206.4432172914
35050 -185184.7470371526
35100 -185174.0085055963
35150 -185168.1549835019
35200 -185178.264931289
35250 -185155.3318727738
35300 -185176.6646311451
35350 -185183.924098892
35400 -185181.1162059556
35450 -185178.9628649456
35500 -185187.4651556693
35550 -185168.1552742214
35600 -185164.1455253325
35650 -185175.0971886168
35700 -185180.0174239451
35750 -185187.8213245489
35800 -185208.5194600153
35850 -185217.3466258866
35900 -185203.7022774786
35950 -185217.5226964
36000 -185226.5429647114
36050 -185242.3082012798
36100 -185258.6078595903
36150 -185280.4719336052
36200 -185273.6952029246
36250 -185254.9220905185
36300 -185242.560649325
36350 -185186.376038947
36400 -185182.9424728667
36450 -185155.4223322085
36500 -185147.0384604214
36550 -185141.7537282832
36600 -185146.5113812513
36650 -185157.0899036572
36700 -185165.0799841346
36750 -185139.8458384642
36800 -185115.6692886935
36850 -185130.168743961
36900 -185121.9319156875
36950 -185107.5695799331
37000 -185100.7191653184
37050 -185087.4130548334
37100 -185058.9399550383
37150 -185040.0929394419
37200 -185056.3795081534
37250 -185040.5285071644
37300 -185039.0147014672
37350 -185027.3356631455
37400 -185053.5890373071
37450 -185047.3096628966
37500 -185079.6448175529
37550 -185085.906869503
37600 -185091.2386247585
37650 -185117.5147537048
37700 -185132.063317489
37750 -185154.2906062651
37800 -185167.5303080221
37850 -185163.1867742304
37900 -185179.2481822998
37950 -185188.403118706
38000 -185221.6063079989
38050 -185243.6276882544
38100 -185235.7114232268
38150 -185213.8753904209
38200 -185223.8237976018
38250 -185208.4863591775
38300 -185180.487783397
38350 -185185.8464304106
38400 -185181.0220557664
38450 -185146.8140938279
38500 -185130.189933619
38550 -185120.4732395232
38600 -185123.6769366053
38650 -185136.5171761369
38700 -185132.4451714396
38750 -185111.8406124081
38800 -185084.9958239162
38850 -185102.18078314
38900 -185121.5641712266
38950 -185136.5468740633
39000 -185117.2889033109
39050 -185109.3643168406
39100 -185117.0411681929
39150 -185137.0609904431
39200 -185101.1861271002
39250 -185090.3827520333
39300 -185108.4838397376
39350 -185107.7730846138
39400 -185113.3967826223
39450 -185133.8275711655
39500 -185113.8232582728
39550 -185089.9698023824
39600 -185058.5838386345
39650 -185056.6989966228
39700 -185055.2670809398
39750 -185055.8574063291
39800 -185036.7321858497
39850 -185034.2950186782
39900 -185022.7959298872
39950 -184998.430755807
40000 -184997.2618708911
40050 -185001.2823699358
40100 -184985.902779252
40150 -184982.5478697311
40200 -184972.2583389559
40250 -184967.0838057233
40300 -184970.0322671137
40350 -184960.120831804
40400 -184949.3211386243
40450 -184954.8340098001
40500 -184942.5921790832
40550 -184924.2383363176
