Curve Total Energy
0 -199750.9988600065
50 -198945.9622121735
100 -198020.7457746853
150 -197182.2249847086
200 -196379.3136032689
250 -195650.2622642046
300 -194988.8563821035
350 -194349.2782263023
400 -193761.0059157659
450 -193223.973778454
500 -192715.49164789
550 -192245.6830363251
600 -191788.249318703
650 -191366.7290702207
700 -190965.5836927349
750 -190608.9632575933
800 -190263.4991412771
850 -189963.4975898496
900 -189649.384384395
950 -189352.909696197
1000 -189106.2977044366
1050 -188857.0281694161
1100 -188605.7332683457
1150 -188385.6185216591
1200 -188179.813479105
1250 -187996.1142746214
1300 -187824.8355879879
1350 -187675.9702149736
1400 -187528.1225296256
1450 -187362.6148904751
1500 -187247.5123655987
1550 -187104.1225277559
1600 -186976.675511661
1650 -186862.6955478456
1700 -186763.4511056487
1750 -186688.3207728598
1800 -186603.003324953
1850 -186509.7050867697
1900 -186440.7423365947
1950 -186374.6360755137
2000 -186295.1819787311
2050 -186201.3737345559
2100 -186138.22582193
2150 -186073.0657732309
2200 -186001.9549515547
2250 -185930.1431270552
2300 -185860.6559566647
2350 -185823.5730116767
2400 -185790.1104527325
2450 -185736.7477973431
2500 -185689.9368365337
2550 -185646.5587864908
2600 -185611.3915275253
2650 -185569.9033631646
2700 -185535.6539207888
2750 -185478.7672329174
2800 -185450.1034748816
2850 -185424.4509586873
2900 -185396.791450552
2950 -185370.7637446736
3000 -185369.6834317206
3050 -185343.4113393123
3100 -185322.9915168548
3150 -185304.0944381644
3200 -185254.9492442001
3250 -185213.747406597
3300 -185188.1140891222
3350 -185175.9145510815
3400 -185153.6909303458
3450 -185120.8169452359
3500 -185113.8835035851
3550 -185101.4694191814
3600 -185097.6619680161
3650 -185077.8689115771
3700 -185076.6375118959
3750 -185069.7159947855
3800 -185050.3527983951
3850 -185046.0610429829
3900 -185015.6017852333
3950 -184970.439293266
4000 -184968.6188970112
4050 -184932.4909528432
4100 -184934.5275808155
4150 -184910.6160919783
4200 -184912.319258035
4250 -184885.2818908504
4300 -184878.3832080853
4350 -184754.5452169956
4400 -184742.4305230974
4450 -184777.2339001312
4500 -184751.5965623874
4550 -184759.0747538249
4600 -184764.394848963
4650 -184755.193040238
4700 -184751.7632704442
4750 -184725.6151458832
4800 -184703.9903505119
4850 -184672.846161363
4900 -184677.1502218496
4950 -184658.9611756448
5000 -184634.4426590702
5050 -184640.0494811205
5100 -184600.4085254437
5150 -184565.8388952332
5200 -184533.5314241602
5250 -184511.4059191547
5300 -184480.7703738483
5350 -184470.5581298973
5400 -184481.9353371053
5450 -184438.9239901221
5500 -184445.6129233115
5550 -184434.9997128006
5600 -184436.4629573446
5650 -184433.2030003529
5700 -184433.1084516349
5750 -184425.8502421126
5800 -184445.068771512
5850 -184450.0098206824
5900 -184438.6026792369
5950 -184430.1927040683
6000 -184436.538084431
6050 -184423.0564639945
6100 -184434.301395099
6150 -184379.6332762655
6200 -184383.3551982116
6250 -184382.7531494524
6300 -184369.3621512681
6350 -184366.5751625109
6400 -184357.8405684566
6450 -184330.7085193008
6500 -184284.8546095483
6550 -184246.3546447314
6600 -184202.6958588885
6650 -184174.0703304638
6700 -184143.096390262
6750 -184112.9872346747
6800 -184091.7915276791
6850 -184078.7944608221
6900 -184072.9774067009
6950 -184079.6248217329
7000 -184088.3067704631
7050 -184084.3150144074
7100 -184069.9778636582
7150 -184076.2601078786
7200 -184050.6097299879
7250 -184014.9925655465
7300 -184007.9842712312
7350 -184009.0196056515
7400 -184003.8070803704
7450 -183988.9070318281
7500 -184018.3636586424
7550 -184012.5038246317
7600 -184014.5642836882
7650 -184015.999096753
7700 -184040.1685122429
7750 -184032.450148811
7800 -184031.9608523502
7850 -184019.1392343178
7900 -184001.9404960812
7950 -183963.5692720783
8000 -183973.2046620485
8050 -183940.476920875
8100 -183952.8007110456
8150 -183932.0954761931
8200 -183937.7248435995
8250 -183926.1142287775
8300 -183937.6260265214
8350 -183967.4768862449
8400 -183936.1444499836
8450 -183927.844582037
8500 -183920.9204246989
8550 -183882.78082909
8600 -183833.5521511697
8650 -183825.7329243815
8700 -183830.9834801546
8750 -183814.5824209188
8800 -183805.4926050073
8850 -183779.148723264
8900 -183738.4118571862
8950 -183733.6531757039
9000 -183738.2541357988
9050 -183759.3989216266
9100 -183760.1843224871
9150 -183742.5990956766
9200 -183723.7325530255
9250 -183738.8959365716
9300 -183723.5155385325
9350 -183718.8934090969
9400 -183697.3399110698
9450 -183703.8962695341
9500 -183696.4975587175
9550 -183696.3993240498
9600 -183695.261306263
9650 -183700.6502388891
9700 -183706.4112805341
9750 -183716.8647984419
9800 -183729.9763726069
9850 -183744.1465162082
9900 -183750.8401024429
9950 -183769.439145816
10000 -183780.0006011192
10050 -183763.471746404
10100 -183740.90197588
10150 -183755.8354185784
10200 -183772.9765243125
10250 -183752.5924225507
10300 -183751.5425495024
10350 -183728.9500420663
10400 -183697.7421822358
10450 -183663.2125934319
10500 -183666.6083053609
10550 -183687.4706499287
10600 -183669.0993178151
10650 -183674.9672765911
10700 -183705.1461767591
10750 -183710.9231906587
10800 -183709.6752000959
10850 -183724.2251994561
10900 -183715.5870234801
10950 -183692.5185311838
11000 -183693.3300872015
11050 -183720.1130634476
11100 -183711.866001097
11150 -183744.5288655382
11200 -183749.7931966393
11250 -183712.8388957741
11300 -183708.2733522856
11350 -183691.9207063147
11400 -183705.4773337252
11450 -183689.9445872948
11500 -183656.0528793546
11550 -183656.0870496919
11600 -183592.2789043322
11650 -183540.5564579231
11700 -183521.7326828651
11750 -183493.8569835597
11800 -183483.3862526774
11850 -183498.043762792
11900 -183500.9124672282
11950 -183493.514557646
12000 -183492.1395352291
12050 -183503.6179530767
12100 -183517.5513127464
12150 -183532.7637571918
12200 -183516.3118494192
12250 -183463.9261204299
12300 -183469.596203801
12350 -183500.2159900396
12400 -183486.2731325045
12450 -183463.8962573309
12500 -183451.1445936429
12550 -183466.0969386747
12600 -183457.3759930132
12650 -183452.9309901259
12700 -183452.3919636489
12750 -183427.8196180105
12800 -183435.7626817951
12850 -183421.7800813853
12900 -183377.8907104048
12950 -183371.3529832071
13000 -183343.8195832936
13050 -183326.6224873508
13100 -183320.7328209305
13150 -183321.3532478488
13200 -183321.0777179078
13250 -183302.2838573179
13300 -183299.991362403
13350 -183321.690404266
13400 -183333.6625717151
13450 -183324.9272052248
13500 -183335.1366457046
13550 -183319.376032488
13600 -183335.454338461
13650 -183365.1982595354
13700 -183351.7349029206
13750 -183314.4235255424
13800 -183308.8592331396
13850 -183295.2128695696
13900 -183299.5149128843
13950 -183295.740363955
14000 -183286.4491820613
14050 -183286.7254264367
14100 -183303.1562445569
14150 -183330.1830660639
14200 -183300.5370718983
14250 -183317.470873621
14300 -183280.1720760495
14350 -183336.8106750667
14400 -183326.6961499846
14450 -183297.678424822
14500 -183309.8473540937
14550 -183313.8935112123
14600 -183318.3139985488
14650 -183312.8331975032
14700 -183315.6085105342
14750 -183326.7823749506
14800 -183316.0810300411
14850 -183315.4997953414
14900 -183321.637007493
14950 -183331.6180375523
15000 -183343.7416526013
15050 -183335.8843781403
15100 -183348.0580868596
15150 -183343.4544676725
15200 -183315.053163656
15250 -183308.0993416203
15300 -183299.7981195831
15350 -183301.682868849
15400 -183298.5379042061
15450 -183290.1736224975
15500 -183334.8159712586
15550 -183328.1012143529
15600 -183340.6276343369
15650 -183331.3962390507
15700 -183298.3471221581
15750 -183306.5730362161
15800 -183268.3428178597
15850 -183239.0046604882
15900 -183214.7357686456
15950 -183227.9066088933
16000 -183231.5279032361
16050 -183227.07023035
16100 -183220.8983665046
16150 -183226.9877188344
16200 -183206.3712537838
16250 -183204.9429986237
16300 -183217.0101968297
16350 -183240.2611080024
16400 -183244.9515224025
16450 -183223.6750926556
16500 -183213.9360238157
16550 -183210.8799501174
16600 -183209.8684711562
16650 -183200.757032093
16700 -183216.664949904
16750 -183218.6375044201
16800 -183198.7433360044
16850 -183170.2813068301
16900 -183207.6435686135
16950 -183203.7535932069
17000 -183215.5968571105
17050 -183193.2372356671
17100 -183170.7701324181
17150 -183159.8021584405
17200 -183174.0868120358
17250 -183142.9554165958
17300 -183155.7912166002
17350 -183154.9061119535
17400 -183146.9247057826
17450 -183152.6831312666
17500 -183156.4868857524
17550 -183171.6939757146
17600 -183168.9350266728
17650 -183191.1255683212
17700 -183223.0592705584
17750 -183208.3183783067
17800 -183199.198083536
17850 -183194.246093549
17900 -183201.7523985175
17950 -183201.7513495598
18000 -183222.9544614248
18050 -183221.6023600187
18100 -183194.6368744063
18150 -183127.6153380026
18200 -183147.3208554377
18250 -183173.0868027635
18300 -183171.3011099174
18350 -183172.3909066164
18400 -183135.1581805034
18450 -183123.6228405691
18500 -183069.78980563
18550 -183070.843067311
18600 -183084.0727347246
18650 -183092.9287306046
18700 -183097.6853420641
18750 -183101.0348507825
18800 -183128.278143529
18850 -183128.7368743278
18900 -183133.4168119514
18950 -183146.612378007
19000 -183161.3346047345
19050 -183177.9496960531
19100 -183183.949472338
19150 -183169.8196300977
19200 -183132.3823184479
19250 -183105.3568492955
19300 -183069.5972764916
19350 -183032.6178934154
19400 -183014.4456525386
19450 -183010.5019720261
19500 -183007.0598315584
19550 -182994.0176568729
19600 -183032.8334246317
19650 -183029.4642179378
19700 -183050.6809988727
19750 -183062.6316599902
19800 -183074.2196785748
19850 -183078.4425442113
19900 -183079.1164648743
19950 -183056.7884193826
20000 -183020.8231700618
20050 -182996.0161793541
20100 -182973.7212769193
20150 -182979.1349586285
20200 -183011.3318456565
20250 -183020.9342237121
20300 -183034.1866362081
20350 -182983.2824169651
20400 -182996.9328925079
20450 -183012.0158369965
20500 -183028.319190032
20550 -183039.9939224937
20600 -183050.5024167368
20650 -183058.9281196219
20700 -183077.3194931268
20750 -183111.3827736177
20800 -183109.1962487133
20850 -183123.415421976
20900 -183115.9647154346
20950 -183070.9412249684
21000 -183087.1439635432
21050 -183133.7312325653
21100 -183157.4753508418
21150 -183167.7735160439
21200 -183147.0573630585
21250 -183137.8530344235
21300 -183125.4280191599
21350 -183137.4380745019
21400 -183067.7915343205
21450 -183076.5292521623
21500 -183062.7072377491
21550 -183029.4980757011
21600 -183005.8588569458
21650 -182973.1328019903
21700 -182961.5078871072
21750 -182976.1601951917
21800 -182989.8998204018
21850 -182975.8011109216
21900 -182959.4233379859
21950 -182953.1654744041
22000 -182971.1090427974
22050 -182979.1767797751
22100 -182985.6945605508
22150 -182990.4736954474
22200 -182972.2516770073
22250 -182955.5101530949
22300 -182968.2468605288
22350 -182981.2294270285
22400 -182973.8863939554
22450 -182963.6610470398
22500 -182968.4507958799
22550 -182944.5244494755
22600 -182947.1450143803
22650 -182940.6169102873
22700 -182945.4921872878
22750 -182946.5900840677
22800 -182939.5409916549
22850 -182930.0510118049
22900 -182951.712803847
22950 -182955.4456958109
23000 -182973.0374663553
23050 -182950.1990979638
23100 -182918.2292335447
23150 -182886.622176621
23200 -182863.3256499676
23250 -182878.7325902698
23300 -182928.139800689
23350 -182913.8070746506
23400 -182921.919615691
23450 -182931.0767157529
23500 -182943.5901551912
23550 -182925.3327084932
23600 -182900.7824624814
23650 -182856.7380360836
23700 -182870.4991893693
23750 -182848.0501083801
23800 -182834.1245191842
23850 -182814.9169754555
23900 -182797.4657506489
23950 -182765.9074702247
24000 -182738.4457459323
24050 -182753.3735899872
24100 -182751.194062515
24150 -182763.011491585
24200 -182755.319396235
24250 -182753.7210913739
24300 -182756.6037517305
24350 -182730.0446268027
24400 -182711.6853243872
24450 -182704.0882217424
24500 -182683.0614633738
24550 -182689.3830228179
24600 -182705.4803968193
24650 -182734.1871459706
24700 -182739.1584152421
24750 -182755.7929582311
24800 -182781.4938195398
24850 -182808.734198208
24900 -182858.3411227277
24950 -182869.3868949715
25000 -182894.1958241123
25050 -182921.9566071878
25100 -182928.3522578095
25150 -182931.6785673696
25200 -182948.3791647736
25250 -182965.1287540477
25300 -182958.3804061312
25350 -182960.6911231203
25400 -182994.760242236
25450 -183020.117730836
25500 -183040.5593101257
25550 -183019.5329034288
25600 -183035.0812934192
25650 -183054.9266070798
25700 -183065.8144508016
25750 -183048.4012402231
25800 -183052.262187697
25850 -183040.6250309326
25900 -183040.6829297393
25950 -182992.8098643918
26000 -182997.8528548654
26050 -182994.1427808551
26100 -182961.2510806018
26150 -182946.8064513527
26200 -182954.1201200328
26250 -182922.8307848906
26300 -182902.6963611152
26350 -182934.9668669807
26400 -182954.0771656074
26450 -182955.2892938493
26500 -182969.2719800665
26550 -182962.3735530814
26600 -183002.65634757
26650 -182984.5766170482
26700 -182986.0847517393
26750 -182959.143003631
26800 -182976.8762056566
26850 -182962.5229275526
26900 -182928.8885427426
26950 -182911.5446870335
27000 -182891.1756518082
27050 -182862.2785169184
27100 -182828.905010191
27150 -182814.6033206816
27200 -182819.2047511803
27250 -182822.3242234542
27300 -182820.6644586326
27350 -182813.0194486484
27400 -182800.4512019515
27450 -182828.4162061153
27500 -182834.9785028074
27550 -182828.3412878627
27600 -182809.2086066504
27650 -182788.3822987401
27700 -182765.8209881321
27750 -182743.4792715105
27800 -182685.9031227152
27850 -182670.0052294418
27900 -182691.2399229014
27950 -182674.7333195162
28000 -182657.9696946267
28050 -182671.5047291293
28100 -182665.3161913672
28150 -182677.2963428357
28200 -182653.5734901539
28250 -182657.9471408667
28300 -182663.0446231513
28350 -182692.0693557018
28400 -182652.6032995424
28450 -182690.7202891465
28500 -182648.7600831726
28550 -182644.9107956915
28600 -182642.6199104289
28650 -182655.4900909803
28700 -182648.6676246203
28750 -182637.5039120411
28800 -182653.1906934012
28850 -182644.2303183485
28900 -182629.4230809909
28950 -182633.3033570972
29000 -182644.5971914099
29050 -182633.7589515681
29100 -182624.0170515505
29150 -182587.9393125325
29200 -182568.0794622213
29250 -182570.1348155738
29300 -182604.879722692
29350 -182614.3480660599
29400 -182586.6923822555
29450 -182578.7627896924
29500 -182585.1312993681
29550 -182579.4376444063
29600 -182578.2095451669
29650 -182558.6400581018
29700 -182548.0249851419
29750 -182540.9689191813
29800 -182508.0345302624
29850 -182496.3859433804
29900 -182474.3619749373
29950 -182442.9816778735
30000 -182447.553979121
30050 -182454.1406259651
30100 -182450.2162512848
30150 -182456.8729795394
30200 -182489.2754453915
30250 -182524.7400065059
30300 -182524.5972751553
30350 -182540.1051902064
30400 -182558.0827201108
30450 -182573.3249708418
30500 -182576.7519174162
30550 -182558.7963978653
30600 -182568.8322260498
30650 -182553.7796406325
30700 -182534.0995896347
30750 -182520.4412949585
30800 -182549.5973750984
30850 -182554.4650537805
30900 -182549.7871194841
30950 -182560.4482966956
31000 -182568.0304255112
31050 -182552.8789696279
31100 -182568.2333386004
31150 -182595.3405841955
31200 -182574.7727271871
31250 -182604.0936757183
31300 -182597.4129243747
31350 -182584.2957201059
31400 -182557.1044867245
31450 -182564.8717302521
31500 -182565.6010549655
31550 -182540.2222722831
31600 -182542.8987313796
31650 -182540.8225997198
31700 -182543.2154898391
31750 -182558.056710655
31800 -182559.3749062696
31850 -182584.0351739742
31900 -182590.7072443636
31950 -182572.5413889982
32000 -182559.3540759808
32050 -182553.9999534711
32100 -182558.0052648401
32150 -182521.1118029077
32200 -182485.9894042518
32250 -182500.623646118
32300 -182508.2679938932
32350 -182491.9609337134
32400 -182486.204247903
32450 -182487.2664300946
32500 -182507.6505029936
32550 -182500.5667019301
32600 -182516.0435713347
32650 -182547.9977341078
32700 -182524.1942652781
32750 -182520.6398264724
32800 -182487.9100824304
32850 -182498.571795426
32900 -182490.1547444436
32950 -182496.5770460513
33000 -182471.996503676
33050 -182463.565045349
33100 -182475.1700218911
33150 -182512.2563737915
33200 -182509.1954469484
33250 -182498.9349017243
33300 -182502.2181019566
33350 -182516.6983272038
33400 -182531.956976249
33450 -182532.8295321434
33500 -182528.9048670348
33550 -182532.8929888813
33600 -182544.897471068
33650 -182531.4096292307
33700 -182533.1507666482
33750 -182543.5261534003
33800 -182518.1416979529
33850 -182535.3000535345
33900 -182512.3726242304
33950 -182519.0399139541
34000 -182477.2396940198
34050 -182468.1147077752
34100 -182479.6653172844
34150 -182477.9630114436
34200 -182473.0556292514
34250 -182454.4523723892
34300 -182459.5935019461
34350 -182459.4466046718
34400 -182457.3440236596
34450 -182475.3050791454
34500 -182457.8709211818
34550 -182429.1369614382
34600 -182423.9129800813
34650 -182408.313379673
34700 -182412.6657299186
34750 -182385.9497851568
34800 -182388.4048117361
34850 -182383.7783984261
34900 -182383.0207389961
34950 -182370.7456833813
35000 -182361.0307004977
35050 -182394.9653793351
35100 -182396.0390601514
35150 -182406.8620927995
35200 -182362.1932823712
35250 -182352.3019645816
35300 -182359.7147518073
35350 -182340.7431800104
35400 -182340.1802785102
35450 -182354.5139337096
35500 -182373.139859577
35550 -182402.8092682063
35600 -182420.4025742406
35650 -182400.4587435531
35700 -182412.7792452637
35750 -182414.6796630953
35800 -182420.002811134
35850 -182418.7696387341
35900 -182411.5446278112
35950 -182393.7605469669
36000 -182381.0523195743
36050 -182372.5857685789
36100 -182364.9927822657
36150 -182361.8387894642
36200 -182361.2406567128
36250 -182384.4738017752
36300 -182384.3089298995
36350 -182420.3560654516
36400 -182452.2561218194
36450 -182456.9394923797
36500 -182469.1911074729
36550 -182455.2749053315
36600 -182452.7222291939
36650 -182475.6142737306
36700 -182520.4931132074
36750 -182517.700448445
36800 -182524.2701392292
36850 -182514.3904717848
36900 -182499.8944819387
36950 -182474.4226734767
37000 -182443.5869345424
37050 -182430.0139518679
37100 -182421.072937118
37150 -182412.6843445324
37200 -182409.3149369424
37250 -182438.0675125177
37300 -182425.619155504
37350 -182417.0472943616
37400 -182400.5145646358
37450 -182389.2820791471
37500 -182365.0406053627
37550 -182359.5142412993
37600 -182389.6660735065
37650 -182366.8820003605
37700 -182352.0182267196
37750 -182361.8985917959
37800 -182363.1101856972
37850 -182368.782575519
37900 -182361.7634947579
37950 -182333.1690824626
38000 -182330.8990093228
38050 -182307.5430224498
38100 -182297.1513217171
38150 -182271.9509063033
38200 -182274.98182423
38250 -182269.350428021
38300 -182255.6561650668
38350 -182281.3613533622
38400 -182281.1157141538
38450 -182261.83392294
38500 -182220.8240855043
38550 -182216.1689271546
38600 -182183.9999758849
38650 -182212.3101521682
38700 -182207.6500519725
38750 -182197.8683827593
38800 -182186.2840895162
38850 -182190.4951661016
38900 -182189.1725004352
38950 -182175.4731666244
39000 -182183.4070315612
39050 -182175.8126295491
39100 -182153.9287998142
39150 -182163.6164417173
39200 -182173.0397312952
39250 -182186.0570507944
39300 -182193.3148694394
39350 -182184.4114878781
39400 -182174.4265702646
39450 -182195.8536981866
39500 -182225.3819812453
39550 -182252.7430969965
39600 -182302.420412962
39650 -182314.1874478848
39700 -182295.3808569234
39750 -182306.1782979309
39800 -182352.6653164115
39850 -182338.4765834033
39900 -182325.3559262217
39950 -182293.5662118382
40000 -182292.1130317138
40050 -182291.0778752654
40100 -182290.0564596116
40150 -182297.7749551994
40200 -182300.7609524085
40250 -182300.5260660366
40300 -182325.7724029449
40350 -182340.672232813
40400 -182364.9674307675
40450 -182349.1563506383
40500 -182348.2062029608
40550 -182362.1626539953
